0,0.192
1,0.192
2,0.192
3,0.192
4,0.192
5,0.200
6,0.200
7,0.192
8,0.200
9,0.200
10,0.192
11,0.200
12,0.200
13,0.200
14,0.208
15,0.200
16,0.208
17,0.200
18,0.192
19,0.192
20,0.200
21,0.200
22,0.200
23,0.208
24,0.215
25,0.215
26,0.208
27,0.192
28,0.200
29,0.223
30,0.200
31,0.208
32,0.215
33,0.215
34,0.215
35,0.215
36,0.208
37,0.208
38,0.208
39,0.208
40,0.200
41,0.208
42,0.200
43,0.192
44,0.208
45,0.208
46,0.208
47,0.208
48,0.208
49,0.208
50,0.215
51,0.208
52,0.208
53,0.208
54,0.208
55,0.208
56,0.200
57,0.208
58,0.208
59,0.208
60,0.208
61,0.200
62,0.208
63,0.208
64,0.192
65,0.185
66,0.177
67,0.177
68,0.185
69,0.200
70,0.192
71,0.185
72,0.192
73,0.192
74,0.185
75,0.200
76,0.192
77,0.185
78,0.192
79,0.192
80,0.200
81,0.200
82,0.208
83,0.215
84,0.215
85,0.223
86,0.231
87,0.238
88,0.231
89,0.223
90,0.223
91,0.215
92,0.208
93,0.208
94,0.200
95,0.192
96,0.200
97,0.208
98,0.192
99,0.192
100,0.200
101,0.200
102,0.208
103,0.200
104,0.200
105,0.192
106,0.200
107,0.185
108,0.185
109,0.192
110,0.192
111,0.192
112,0.192
113,0.185
114,0.185
115,0.192
116,0.200
117,0.200
118,0.192
119,0.192
120,0.192
121,0.192
122,0.192
123,0.192
124,0.177
125,0.192
126,0.177
127,0.185
128,0.185
129,0.177
130,0.185
131,0.185
132,0.177
133,0.192
134,0.169
135,0.177
136,0.192
137,0.177
138,0.169
139,0.177
140,0.185
141,0.169
142,0.169
143,0.177
144,0.177
145,0.169
146,0.169
147,0.169
148,0.169
149,0.169
150,0.169
151,0.162
152,0.169
153,0.177
154,0.185
155,0.200
156,0.192
157,0.192
158,0.192
159,0.192
160,0.192
161,0.200
162,0.200
163,0.200
164,0.192
165,0.200
166,0.208
167,0.215
168,0.215
169,0.215
170,0.215
171,0.208
172,0.215
173,0.215
174,0.215
175,0.200
176,0.215
177,0.223
178,0.223
179,0.223
180,0.231
181,0.215
182,0.215
183,0.223
184,0.215
185,0.200
186,0.185
187,0.177
188,0.177
189,0.185
190,0.185
191,0.200
192,0.208
193,0.208
194,0.200
195,0.215
196,0.215
197,0.215
198,0.223
199,0.223
200,0.231
201,0.238
202,0.238
203,0.238
204,0.238
205,0.238
206,0.238
207,0.238
208,0.246
209,0.262
210,0.254
211,0.246
212,0.238
213,0.246
214,0.238
215,0.215
216,0.231
217,0.231
218,0.231
219,0.231
220,0.231
221,0.215
222,0.208
223,0.223
224,0.215
225,0.192
226,0.185
227,0.162
228,0.131
229,0.123
230,0.115
231,0.092
232,0.062
233,0.031
234,0.008
235,-0.031
236,-0.062
237,-0.077
238,-0.108
239,-0.146
240,-0.169
241,-0.208
242,-0.254
243,-0.292
244,-0.331
245,-0.354
246,-0.377
247,-0.369
248,-0.369
249,-0.377
250,-0.392
251,-0.400
252,-0.392
253,-0.392
254,-0.362
255,-0.346
256,-0.338
257,-0.323
258,-0.285
259,-0.277
260,-0.254
261,-0.223
262,-0.192
263,-0.177
264,-0.146
265,-0.123
266,-0.092
267,-0.077
268,-0.092
269,-0.092
270,-0.092
271,-0.092
272,-0.077
273,-0.069
274,-0.069
275,-0.077
276,-0.069
277,-0.069
278,-0.062
279,-0.062
280,-0.062
281,-0.046
282,-0.046
283,-0.038
284,-0.031
285,-0.023
286,-0.015
287,0.008
288,0.000
289,0.008
290,0.008
291,-0.008
292,0.008
293,0.031
294,0.023
295,0.015
296,0.023
297,0.038
298,0.046
299,0.054
300,0.062
301,0.069
302,0.085
303,0.108
304,0.123
305,0.131
306,0.146
307,0.154
308,0.162
309,0.177
310,0.185
311,0.185
312,0.192
313,0.169
314,0.177
315,0.177
316,0.185
317,0.185
318,0.192
319,0.185
320,0.200
321,0.192
322,0.185
323,0.208
324,0.208
325,0.200
326,0.200
327,0.215
328,0.208
329,0.215
330,0.223
331,0.231
332,0.223
333,0.223
334,0.231
335,0.231
336,0.223
337,0.215
338,0.223
339,0.223
340,0.223
341,0.223
342,0.223
343,0.223
344,0.238
345,0.231
346,0.223
347,0.238
348,0.238
349,0.238
350,0.246
351,0.238
352,0.238
353,0.238
354,0.238
355,0.238
356,0.246
357,0.254
358,0.254
359,0.246
360,0.246
361,0.254
362,0.246
363,0.254
364,0.262
365,0.269
366,0.262
367,0.269
368,0.269
369,0.269
370,0.277
371,0.277
372,0.269
373,0.262
374,0.262
375,0.269
376,0.262
377,0.269
378,0.277
379,0.277
380,0.277
381,0.292
382,0.292
383,0.292
384,0.292
385,0.300
386,0.300
387,0.300
388,0.308
389,0.308
390,0.315
391,0.323
392,0.315
393,0.323
394,0.338
395,0.331
396,0.338
397,0.338
398,0.354
399,0.346
400,0.338
401,0.346
402,0.346
403,0.338
404,0.338
405,0.346
406,0.362
407,0.362
408,0.354
409,0.362
410,0.369
411,0.385
412,0.392
413,0.415
414,0.423
415,0.431
416,0.454
417,0.469
418,0.469
419,0.485
420,0.492
421,0.492
422,0.508
423,0.531
424,0.515
425,0.523
426,0.546
427,0.569
428,0.585
429,0.592
430,0.600
431,0.623
432,0.638
433,0.646
434,0.654
435,0.654
436,0.669
437,0.669
438,0.685
439,0.685
440,0.685
441,0.692
442,0.700
443,0.700
444,0.700
445,0.692
446,0.715
447,0.708
448,0.700
449,0.715
450,0.715
451,0.708
452,0.708
453,0.715
454,0.715
455,0.723
456,0.715
457,0.700
458,0.692
459,0.708
460,0.700
461,0.692
462,0.685
463,0.677
464,0.662
465,0.669
466,0.662
467,0.654
468,0.646
469,0.638
470,0.623
471,0.623
472,0.600
473,0.592
474,0.585
475,0.569
476,0.569
477,0.569
478,0.569
479,0.569
480,0.562
481,0.554
482,0.554
483,0.546
484,0.554
485,0.554
486,0.538
487,0.515
488,0.523
489,0.531
490,0.508
491,0.500
492,0.500
493,0.477
494,0.469
495,0.454
496,0.446
497,0.438
498,0.423
499,0.415
500,0.408
501,0.408
502,0.400
503,0.385
504,0.377
505,0.377
506,0.362
507,0.354
508,0.346
509,0.338
510,0.331
511,0.338
512,0.338
513,0.331
514,0.315
515,0.315
516,0.323
517,0.315
518,0.315
519,0.308
520,0.300
521,0.292
522,0.308
523,0.300
524,0.285
525,0.262
526,0.269
527,0.269
528,0.262
529,0.262
530,0.277
531,0.269
532,0.262
533,0.269
534,0.262
535,0.246
536,0.246
537,0.254
538,0.254
539,0.254
540,0.246
541,0.254
542,0.246
543,0.238
544,0.231
545,0.246
546,0.246
547,0.238
548,0.246
549,0.246
550,0.231
551,0.231
552,0.238
553,0.223
554,0.215
555,0.223
556,0.231
557,0.223
558,0.238
559,0.238
560,0.238
561,0.246
562,0.254
563,0.246
564,0.246
565,0.246
566,0.246
567,0.246
568,0.262
569,0.254
570,0.246
571,0.246
572,0.238
573,0.238
574,0.246
575,0.238
576,0.231
577,0.238
578,0.238
579,0.238
580,0.238
581,0.238
582,0.223
583,0.238
584,0.246
585,0.246
586,0.238
587,0.238
588,0.238
589,0.246
590,0.246
591,0.238
592,0.238
593,0.238
594,0.223
595,0.231
596,0.238
597,0.238
598,0.231
599,0.231
600,0.231
601,0.231
602,0.223
603,0.223
604,0.223
605,0.223
606,0.223
607,0.223
608,0.231
609,0.231
610,0.231
611,0.231
612,0.238
613,0.231
614,0.223
615,0.215
616,0.208
617,0.208
618,0.200
619,0.208
620,0.208
621,0.208
622,0.208
623,0.208
624,0.208
625,0.215
626,0.215
627,0.215
628,0.208
629,0.215
630,0.200
631,0.192
632,0.192
633,0.185
634,0.177
635,0.192
636,0.185
637,0.169
638,0.177
639,0.177
640,0.169
641,0.169
642,0.154
643,0.162
644,0.177
645,0.185
646,0.185
647,0.177
648,0.185
649,0.177
650,0.185
651,0.185
652,0.177
653,0.185
654,0.185
655,0.177
656,0.185
657,0.169
658,0.185
659,0.185
660,0.177
661,0.192
662,0.192
663,0.192
664,0.185
665,0.185
666,0.192
667,0.192
668,0.192
669,0.200
670,0.200
671,0.192
672,0.185
673,0.192
674,0.185
675,0.192
676,0.185
677,0.192
678,0.192
679,0.185
680,0.177
681,0.169
682,0.169
683,0.169
684,0.162
685,0.162
686,0.177
687,0.177
688,0.177
689,0.192
690,0.192
691,0.177
692,0.185
693,0.185
694,0.185
695,0.192
696,0.185
697,0.192
698,0.185
699,0.185
700,0.192
701,0.200
702,0.208
703,0.208
704,0.208
705,0.208
706,0.200
707,0.208
708,0.200
709,0.200
710,0.200
711,0.192
712,0.192
713,0.192
714,0.185
715,0.192
716,0.192
717,0.192
718,0.192
719,0.192
720,0.192
721,0.192
722,0.192
723,0.185
724,0.192
725,0.192
726,0.185
727,0.177
728,0.185
729,0.185
730,0.177
731,0.162
732,0.162
733,0.154
734,0.154
735,0.146
736,0.169
737,0.169
738,0.177
739,0.185
740,0.200
741,0.200
742,0.200
743,0.200
744,0.192
745,0.192
746,0.192
747,0.185
748,0.185
749,0.185
750,0.192
751,0.192
752,0.192
753,0.185
754,0.185
755,0.200
756,0.208
757,0.200
758,0.192
759,0.215
760,0.215
761,0.200
762,0.192
763,0.200
764,0.200
765,0.192
766,0.185
767,0.185
768,0.177
769,0.177
770,0.177
771,0.177
772,0.185
773,0.177
774,0.185
775,0.192
776,0.185
777,0.185
778,0.192
779,0.185
780,0.192
781,0.192
782,0.177
783,0.169
784,0.185
785,0.192
786,0.185
787,0.177
788,0.177
789,0.169
790,0.177
791,0.177
792,0.169
793,0.177
794,0.185
795,0.177
796,0.177
797,0.192
798,0.185
799,0.185
800,0.200
801,0.192
802,0.185
803,0.192
804,0.185
805,0.185
806,0.185
807,0.185
808,0.177
809,0.177
810,0.177
811,0.169
812,0.169
813,0.162
814,0.177
815,0.177
816,0.169
817,0.185
818,0.200
819,0.192
820,0.200
821,0.200
822,0.192
823,0.192
824,0.200
825,0.200
826,0.200
827,0.208
828,0.200
829,0.200
830,0.200
831,0.185
832,0.185
833,0.177
834,0.177
835,0.177
836,0.177
837,0.185
838,0.185
839,0.177
840,0.185
841,0.192
842,0.185
843,0.192
844,0.185
845,0.185
846,0.177
847,0.192
848,0.192
849,0.185
850,0.177
851,0.177
852,0.169
853,0.177
854,0.177
855,0.169
856,0.169
857,0.154
858,0.169
859,0.185
860,0.185
861,0.177
862,0.185
863,0.185
864,0.185
865,0.185
866,0.185
867,0.177
868,0.192
869,0.177
870,0.177
871,0.177
872,0.185
873,0.177
874,0.185
875,0.192
876,0.185
877,0.185
878,0.185
879,0.185
880,0.185
881,0.192
882,0.185
883,0.169
884,0.185
885,0.192
886,0.177
887,0.185
888,0.192
889,0.185
890,0.185
891,0.185
892,0.185
893,0.177
894,0.185
895,0.185
896,0.192
897,0.185
898,0.185
899,0.185
900,0.185
901,0.177
902,0.169
903,0.177
904,0.177
905,0.169
906,0.177
907,0.192
908,0.185
909,0.169
910,0.169
911,0.185
912,0.185
913,0.177
914,0.185
915,0.185
916,0.177
917,0.169
918,0.169
919,0.162
920,0.162
921,0.162
922,0.154
923,0.154
924,0.169
925,0.169
926,0.177
927,0.177
928,0.177
929,0.185
930,0.177
931,0.185
932,0.185
933,0.177
934,0.185
935,0.185
936,0.185
937,0.192
938,0.192
939,0.185
940,0.177
941,0.177
942,0.177
943,0.169
944,0.169
945,0.169
946,0.169
947,0.169
948,0.169
949,0.169
950,0.162
951,0.162
952,0.169
953,0.177
954,0.169
955,0.177
956,0.185
957,0.177
958,0.185
959,0.192
960,0.185
961,0.177
962,0.177
963,0.169
964,0.169
965,0.169
966,0.177
967,0.185
968,0.169
969,0.185
970,0.177
971,0.192
972,0.185
973,0.185
974,0.192
975,0.192
976,0.185
977,0.192
978,0.192
979,0.192
980,0.192
981,0.200
982,0.200
983,0.192
984,0.208
985,0.223
986,0.215
987,0.215
988,0.223
989,0.215
990,0.215
991,0.215
992,0.215
993,0.208
994,0.208
995,0.223
996,0.208
997,0.208
998,0.223
999,0.223
1000,0.215
1001,0.215
1002,0.215
1003,0.215
1004,0.215
1005,0.215
1006,0.215
1007,0.208
1008,0.200
1009,0.208
1010,0.208
1011,0.208
1012,0.215
1013,0.208
1014,0.200
1015,0.200
1016,0.208
1017,0.208
1018,0.208
1019,0.215
1020,0.208
1021,0.200
1022,0.200
1023,0.192
1024,0.192
1025,0.215
1026,0.208
1027,0.185
1028,0.200
1029,0.208
1030,0.200
1031,0.192
1032,0.200
1033,0.192
1034,0.169
1035,0.185
1036,0.192
1037,0.169
1038,0.177
1039,0.185
1040,0.185
1041,0.185
1042,0.185
1043,0.185
1044,0.185
1045,0.185
1046,0.177
1047,0.177
1048,0.185
1049,0.185
1050,0.177
1051,0.185
1052,0.177
1053,0.169
1054,0.177
1055,0.177
1056,0.154
1057,0.154
1058,0.154
1059,0.162
1060,0.154
1061,0.162
1062,0.162
1063,0.169
1064,0.162
1065,0.162
1066,0.169
1067,0.162
1068,0.146
1069,0.154
1070,0.154
1071,0.146
1072,0.154
1073,0.162
1074,0.154
1075,0.154
1076,0.162
1077,0.162
1078,0.146
1079,0.146
1080,0.154
1081,0.146
1082,0.154
1083,0.138
1084,0.131
1085,0.138
1086,0.131
1087,0.138
1088,0.138
1089,0.138
1090,0.138
1091,0.146
1092,0.154
1093,0.146
1094,0.131
1095,0.146
1096,0.154
1097,0.162
1098,0.169
1099,0.169
1100,0.162
1101,0.177
1102,0.192
1103,0.200
1104,0.200
1105,0.200
1106,0.200
1107,0.215
1108,0.215
1109,0.208
1110,0.223
1111,0.231
1112,0.223
1113,0.231
1114,0.238
1115,0.238
1116,0.262
1117,0.285
1118,0.308
1119,0.338
1120,0.385
1121,0.408
1122,0.423
1123,0.431
1124,0.423
1125,0.400
1126,0.400
1127,0.385
1128,0.354
1129,0.331
1130,0.323
1131,0.315
1132,0.269
1133,0.231
1134,0.223
1135,0.192
1136,0.177
1137,0.154
1138,0.138
1139,0.146
1140,0.131
1141,0.108
1142,0.085
1143,0.077
1144,0.069
1145,0.085
1146,0.092
1147,0.092
1148,0.108
1149,0.115
1150,0.108
1151,0.123
1152,0.138
1153,0.123
1154,0.131
1155,0.123
1156,0.115
1157,0.108
1158,0.108
1159,0.108
1160,0.115
1161,0.138
1162,0.138
1163,0.138
1164,0.146
1165,0.154
1166,0.154
1167,0.146
1168,0.146
1169,0.146
1170,0.146
1171,0.162
1172,0.162
1173,0.162
1174,0.177
1175,0.162
1176,0.177
1177,0.177
1178,0.162
1179,0.169
1180,0.162
1181,0.162
1182,0.162
1183,0.169
1184,0.169
1185,0.162
1186,0.154
1187,0.154
1188,0.154
1189,0.146
1190,0.154
1191,0.162
1192,0.169
1193,0.169
1194,0.185
1195,0.177
1196,0.177
1197,0.177
1198,0.169
1199,0.162
1200,0.169
1201,0.169
1202,0.169
1203,0.169
1204,0.177
1205,0.169
1206,0.177
1207,0.192
1208,0.177
1209,0.177
1210,0.185
1211,0.177
1212,0.177
1213,0.169
1214,0.162
1215,0.162
1216,0.177
1217,0.177
1218,0.169
1219,0.177
1220,0.177
1221,0.169
1222,0.177
1223,0.177
1224,0.169
1225,0.177
1226,0.192
1227,0.177
1228,0.177
1229,0.185
1230,0.192
1231,0.185
1232,0.192
1233,0.185
1234,0.185
1235,0.185
1236,0.192
1237,0.192
1238,0.185
1239,0.185
1240,0.177
1241,0.177
1242,0.177
1243,0.185
1244,0.185
1245,0.169
1246,0.169
1247,0.177
1248,0.177
1249,0.169
1250,0.185
1251,0.185
1252,0.169
1253,0.177
1254,0.185
1255,0.185
1256,0.185
1257,0.192
1258,0.185
1259,0.185
1260,0.200
1261,0.192
1262,0.169
1263,0.169
1264,0.169
1265,0.154
1266,0.154
1267,0.169
1268,0.162
1269,0.169
1270,0.177
1271,0.169
1272,0.177
1273,0.185
1274,0.177
1275,0.177
1276,0.185
1277,0.185
1278,0.177
1279,0.185
1280,0.185
1281,0.177
1282,0.185
1283,0.185
1284,0.169
1285,0.169
1286,0.169
1287,0.162
1288,0.162
1289,0.169
1290,0.169
1291,0.162
1292,0.169
1293,0.169
1294,0.169
1295,0.177
1296,0.177
1297,0.169
1298,0.169
1299,0.169
1300,0.185
1301,0.185
1302,0.177
1303,0.177
1304,0.177
1305,0.185
1306,0.192
1307,0.177
1308,0.192
1309,0.200
1310,0.200
1311,0.200
1312,0.208
1313,0.200
1314,0.200
1315,0.200
1316,0.208
1317,0.231
1318,0.231
1319,0.223
1320,0.223
1321,0.246
1322,0.246
1323,0.246
1324,0.254
1325,0.254
1326,0.262
1327,0.254
1328,0.262
1329,0.254
1330,0.269
1331,0.277
1332,0.277
1333,0.277
1334,0.285
1335,0.277
1336,0.285
1337,0.285
1338,0.292
1339,0.292
1340,0.285
1341,0.285
1342,0.292
1343,0.308
1344,0.315
1345,0.315
1346,0.308
1347,0.300
1348,0.292
1349,0.300
1350,0.300
1351,0.292
1352,0.285
1353,0.285
1354,0.277
1355,0.292
1356,0.292
1357,0.277
1358,0.269
1359,0.262
1360,0.254
1361,0.254
1362,0.262
1363,0.277
1364,0.269
1365,0.262
1366,0.254
1367,0.254
1368,0.262
1369,0.262
1370,0.277
1371,0.269
1372,0.262
1373,0.262
1374,0.269
1375,0.246
1376,0.246
1377,0.246
1378,0.246
1379,0.246
1380,0.246
1381,0.246
1382,0.238
1383,0.231
1384,0.231
1385,0.231
1386,0.231
1387,0.223
1388,0.215
1389,0.215
1390,0.215
1391,0.215
1392,0.223
1393,0.215
1394,0.208
1395,0.215
1396,0.208
1397,0.200
1398,0.192
1399,0.200
1400,0.185
1401,0.177
1402,0.185
1403,0.185
1404,0.177
1405,0.177
1406,0.185
1407,0.177
1408,0.177
1409,0.185
1410,0.185
1411,0.177
1412,0.185
1413,0.200
1414,0.192
1415,0.185
1416,0.192
1417,0.185
1418,0.185
1419,0.185
1420,0.185
1421,0.185
1422,0.185
1423,0.192
1424,0.185
1425,0.185
1426,0.192
1427,0.185
1428,0.192
1429,0.185
1430,0.192
1431,0.185
1432,0.192
1433,0.192
1434,0.185
1435,0.185
1436,0.185
1437,0.177
1438,0.177
1439,0.177
1440,0.169
1441,0.177
1442,0.185
1443,0.185
1444,0.192
1445,0.192
1446,0.192
1447,0.192
1448,0.200
1449,0.200
1450,0.192
1451,0.192
1452,0.208
1453,0.200
1454,0.192
1455,0.192
1456,0.200
1457,0.192
1458,0.200
1459,0.200
1460,0.200
1461,0.192
1462,0.200
1463,0.192
1464,0.192
1465,0.200
1466,0.192
1467,0.185
1468,0.200
1469,0.192
1470,0.185
1471,0.192
1472,0.192
1473,0.185
1474,0.200
1475,0.192
1476,0.185
1477,0.192
1478,0.192
1479,0.185
1480,0.185
1481,0.192
1482,0.185
1483,0.177
1484,0.177
1485,0.177
1486,0.169
1487,0.185
1488,0.185
1489,0.185
1490,0.185
1491,0.185
1492,0.192
1493,0.200
1494,0.200
1495,0.200
1496,0.208
1497,0.215
1498,0.215
1499,0.215
1500,0.238
1501,0.238
1502,0.231
1503,0.254
1504,0.262
1505,0.277
1506,0.300
1507,0.323
1508,0.338
1509,0.354
1510,0.377
1511,0.400
1512,0.415
1513,0.438
1514,0.446
1515,0.462
1516,0.462
1517,0.469
1518,0.500
1519,0.531
1520,0.523
1521,0.546
1522,0.577
1523,0.592
1524,0.592
1525,0.608
1526,0.638
1527,0.654
1528,0.677
1529,0.708
1530,0.731
1531,0.746
1532,0.762
1533,0.800
1534,0.854
1535,0.892
1536,0.915
1537,0.954
1538,1.008
1539,1.031
1540,1.038
1541,1.015
1542,0.985
1543,0.977
1544,0.962
1545,0.938
1546,0.915
1547,0.892
1548,0.846
1549,0.777
1550,0.738
1551,0.700
1552,0.646
1553,0.600
1554,0.554
1555,0.515
1556,0.462
1557,0.415
1558,0.369
1559,0.331
1560,0.292
1561,0.246
1562,0.223
1563,0.238
1564,0.238
1565,0.223
1566,0.208
1567,0.208
1568,0.208
1569,0.200
1570,0.200
1571,0.185
1572,0.192
1573,0.185
1574,0.177
1575,0.177
1576,0.169
1577,0.169
1578,0.154
1579,0.154
1580,0.162
1581,0.162
1582,0.154
1583,0.154
1584,0.154
1585,0.146
1586,0.146
1587,0.146
1588,0.154
1589,0.154
1590,0.154
1591,0.138
1592,0.146
1593,0.138
1594,0.138
1595,0.123
1596,0.131
1597,0.131
1598,0.123
1599,0.131
1600,0.131
1601,0.123
1602,0.123
1603,0.123
1604,0.123
1605,0.115
1606,0.115
1607,0.123
1608,0.123
1609,0.115
1610,0.123
1611,0.123
1612,0.115
1613,0.108
1614,0.115
1615,0.123
1616,0.108
1617,0.115
1618,0.108
1619,0.108
1620,0.092
1621,0.100
1622,0.108
1623,0.100
1624,0.092
1625,0.092
1626,0.092
1627,0.077
1628,0.092
1629,0.100
1630,0.108
1631,0.100
1632,0.100
1633,0.100
1634,0.100
1635,0.085
1636,0.092
1637,0.100
1638,0.092
1639,0.085
1640,0.085
1641,0.092
1642,0.100
1643,0.108
1644,0.108
1645,0.100
1646,0.100
1647,0.092
1648,0.100
1649,0.092
1650,0.077
1651,0.085
1652,0.085
1653,0.077
1654,0.069
1655,0.077
1656,0.069
1657,0.069
1658,0.077
1659,0.069
1660,0.069
1661,0.062
1662,0.062
1663,0.062
1664,0.069
1665,0.069
1666,0.062
1667,0.062
1668,0.054
1669,0.062
1670,0.069
1671,0.054
1672,0.046
1673,0.054
1674,0.062
1675,0.054
1676,0.046
1677,0.054
1678,0.054
1679,0.054
1680,0.046
1681,0.038
1682,0.046
1683,0.046
1684,0.046
1685,0.038
1686,0.038
1687,0.038
1688,0.046
1689,0.038
1690,0.038
1691,0.046
1692,0.054
1693,0.046
1694,0.031
1695,0.038
1696,0.054
1697,0.054
1698,0.038
1699,0.031
1700,0.038
1701,0.023
1702,0.023
1703,0.015
1704,0.008
1705,0.015
1706,0.008
1707,0.000
1708,0.000
1709,0.008
1710,-0.008
1711,-0.015
1712,-0.008
1713,-0.023
1714,-0.031
1715,-0.023
1716,-0.031
1717,-0.046
1718,-0.031
1719,-0.031
1720,-0.046
1721,-0.031
1722,-0.031
1723,-0.046
1724,-0.054
1725,-0.038
1726,-0.038
1727,-0.038
1728,-0.038
1729,-0.038
1730,-0.038
1731,-0.023
1732,-0.023
1733,-0.023
1734,-0.023
1735,-0.023
1736,-0.023
1737,-0.023
1738,-0.023
1739,-0.031
1740,-0.031
1741,-0.023
1742,-0.023
1743,-0.023
1744,-0.015
1745,-0.008
1746,-0.008
1747,-0.008
1748,0.000
1749,-0.008
1750,0.000
1751,0.008
1752,0.015
1753,0.015
1754,0.015
1755,0.008
1756,0.015
1757,0.023
1758,0.031
1759,0.038
1760,0.046
1761,0.038
1762,0.038
1763,0.038
1764,0.038
1765,0.046
1766,0.046
1767,0.038
1768,0.062
1769,0.077
1770,0.069
1771,0.062
1772,0.069
1773,0.069
1774,0.069
1775,0.069
1776,0.062
1777,0.062
1778,0.077
1779,0.085
1780,0.077
1781,0.085
1782,0.077
1783,0.085
1784,0.085
1785,0.092
1786,0.092
1787,0.100
1788,0.092
1789,0.100
1790,0.108
1791,0.108
1792,0.115
1793,0.115
1794,0.123
1795,0.115
1796,0.115
1797,0.115
1798,0.131
1799,0.131
1800,0.123
1801,0.131
1802,0.123
1803,0.123
1804,0.115
1805,0.115
1806,0.123
1807,0.123
1808,0.131
1809,0.138
1810,0.138
1811,0.146
1812,0.146
1813,0.138
1814,0.146
1815,0.138
1816,0.146
1817,0.146
1818,0.146
1819,0.146
1820,0.146
1821,0.146
1822,0.154
1823,0.154
1824,0.146
1825,0.146
1826,0.154
1827,0.162
1828,0.185
1829,0.185
1830,0.177
1831,0.192
1832,0.200
1833,0.192
1834,0.185
1835,0.192
1836,0.192
1837,0.185
1838,0.192
1839,0.192
1840,0.200
1841,0.192
1842,0.200
1843,0.200
1844,0.208
1845,0.200
1846,0.208
1847,0.192
1848,0.200
1849,0.208
1850,0.208
1851,0.215
1852,0.215
1853,0.208
1854,0.200
1855,0.215
1856,0.215
1857,0.208
1858,0.208
1859,0.215
1860,0.208
1861,0.215
1862,0.215
1863,0.200
1864,0.192
1865,0.200
1866,0.215
1867,0.208
1868,0.200
1869,0.231
1870,0.223
1871,0.215
1872,0.223
1873,0.215
1874,0.208
1875,0.223
1876,0.215
1877,0.208
1878,0.215
1879,0.215
1880,0.215
1881,0.231
1882,0.231
1883,0.215
1884,0.231
1885,0.231
1886,0.223
1887,0.215
1888,0.223
1889,0.215
1890,0.223
1891,0.215
1892,0.215
1893,0.223
1894,0.231
1895,0.215
1896,0.223
1897,0.231
1898,0.223
1899,0.215
1900,0.215
1901,0.215
1902,0.208
1903,0.208
1904,0.192
1905,0.192
1906,0.200
1907,0.208
1908,0.200
1909,0.200
1910,0.200
1911,0.215
1912,0.223
1913,0.215
1914,0.215
1915,0.223
1916,0.215
1917,0.208
1918,0.200
1919,0.208
1920,0.208
1921,0.200
1922,0.215
1923,0.208
1924,0.208
1925,0.215
1926,0.208
1927,0.208
1928,0.215
1929,0.200
1930,0.208
1931,0.200
1932,0.200
1933,0.208
1934,0.215
1935,0.208
1936,0.208
1937,0.215
1938,0.215
1939,0.215
1940,0.215
1941,0.215
1942,0.208
1943,0.208
1944,0.208
1945,0.215
1946,0.215
1947,0.208
1948,0.208
1949,0.208
1950,0.215
1951,0.215
1952,0.208
1953,0.200
1954,0.208
1955,0.215
1956,0.215
1957,0.215
1958,0.208
1959,0.208
1960,0.208
1961,0.208
1962,0.208
1963,0.208
1964,0.208
1965,0.215
1966,0.208
1967,0.215
1968,0.208
1969,0.208
1970,0.208
1971,0.208
1972,0.200
1973,0.208
1974,0.200
1975,0.215
1976,0.215
1977,0.215
1978,0.215
1979,0.223
1980,0.223
1981,0.223
1982,0.215
1983,0.208
1984,0.200
1985,0.208
1986,0.215
1987,0.223
1988,0.215
1989,0.223
1990,0.208
1991,0.208
1992,0.215
1993,0.215
1994,0.208
1995,0.208
1996,0.208
1997,0.208
1998,0.208
1999,0.215
2000,0.215
2001,0.208
2002,0.208
2003,0.215
2004,0.208
2005,0.208
2006,0.208
2007,0.208
2008,0.192
2009,0.208
2010,0.208
2011,0.200
2012,0.200
2013,0.208
2014,0.200
2015,0.177
2016,0.185
2017,0.169
2018,0.177
2019,0.162
2020,0.162
2021,0.162
2022,0.154
2023,0.169
2024,0.177
2025,0.177
2026,0.177
2027,0.185
2028,0.192
2029,0.192
2030,0.192
2031,0.185
2032,0.185
2033,0.192
2034,0.192
2035,0.177
2036,0.177
2037,0.185
2038,0.185
2039,0.169
2040,0.169
2041,0.169
2042,0.154
2043,0.154
2044,0.169
2045,0.162
2046,0.185
2047,0.192
2048,0.192
2049,0.192
2050,0.208
2051,0.200
2052,0.192
2053,0.185
2054,0.200
2055,0.192
2056,0.192
2057,0.192
2058,0.192
2059,0.185
2060,0.185
2061,0.177
2062,0.177
2063,0.169
2064,0.162
2065,0.169
2066,0.169
2067,0.169
2068,0.169
2069,0.169
2070,0.177
2071,0.169
2072,0.162
2073,0.169
2074,0.162
2075,0.162
2076,0.169
2077,0.169
2078,0.162
2079,0.169
2080,0.177
2081,0.177
2082,0.169
2083,0.169
2084,0.177
2085,0.169
2086,0.169
2087,0.169
2088,0.154
2089,0.169
2090,0.162
2091,0.162
2092,0.162
2093,0.169
2094,0.169
2095,0.162
2096,0.169
2097,0.169
2098,0.169
2099,0.162
2100,0.154
2101,0.169
2102,0.177
2103,0.162
2104,0.162
2105,0.162
2106,0.169
2107,0.177
2108,0.177
2109,0.169
2110,0.169
2111,0.177
2112,0.177
2113,0.169
2114,0.177
2115,0.177
2116,0.162
2117,0.169
2118,0.162
2119,0.169
2120,0.169
2121,0.154
2122,0.154
2123,0.162
2124,0.169
2125,0.162
2126,0.162
2127,0.169
2128,0.177
2129,0.169
2130,0.169
2131,0.177
2132,0.185
2133,0.192
2134,0.185
2135,0.177
2136,0.177
2137,0.177
2138,0.169
2139,0.162
2140,0.169
2141,0.169
2142,0.169
2143,0.169
2144,0.169
2145,0.169
2146,0.169
2147,0.169
2148,0.169
2149,0.169
2150,0.177
2151,0.169
2152,0.169
2153,0.162
2154,0.177
2155,0.185
2156,0.169
2157,0.162
2158,0.169
2159,0.177
2160,0.169
2161,0.162
2162,0.169
2163,0.169
2164,0.162
2165,0.169
2166,0.169
2167,0.169
2168,0.162
2169,0.162
2170,0.162
2171,0.154
2172,0.162
2173,0.162
2174,0.162
2175,0.162
2176,0.154
2177,0.162
2178,0.162
2179,0.162
2180,0.154
2181,0.154
2182,0.162
2183,0.162
2184,0.169
2185,0.162
2186,0.154
2187,0.154
2188,0.154
2189,0.154
2190,0.154
2191,0.146
2192,0.146
2193,0.146
2194,0.162
2195,0.154
2196,0.146
2197,0.154
2198,0.154
2199,0.154
2200,0.162
2201,0.154
2202,0.154
2203,0.154
2204,0.154
2205,0.154
2206,0.154
2207,0.154
2208,0.154
2209,0.154
2210,0.154
2211,0.154
2212,0.154
2213,0.154
2214,0.162
2215,0.162
2216,0.162
2217,0.169
2218,0.162
2219,0.169
2220,0.177
2221,0.177
2222,0.169
2223,0.177
2224,0.177
2225,0.169
2226,0.169
2227,0.169
2228,0.162
2229,0.169
2230,0.177
2231,0.169
2232,0.162
2233,0.162
2234,0.169
2235,0.169
2236,0.177
2237,0.177
2238,0.169
2239,0.177
2240,0.169
2241,0.185
2242,0.185
2243,0.185
2244,0.185
2245,0.192
2246,0.177
2247,0.177
2248,0.192
2249,0.185
2250,0.169
2251,0.177
2252,0.177
2253,0.169
2254,0.169
2255,0.177
2256,0.169
2257,0.162
2258,0.162
2259,0.162
2260,0.162
2261,0.162
2262,0.162
2263,0.169
2264,0.177
2265,0.177
2266,0.169
2267,0.185
2268,0.185
2269,0.177
2270,0.185
2271,0.177
2272,0.177
2273,0.177
2274,0.177
2275,0.169
2276,0.162
2277,0.162
2278,0.154
2279,0.154
2280,0.154
2281,0.146
2282,0.146
2283,0.154
2284,0.146
2285,0.146
2286,0.154
2287,0.169
2288,0.146
2289,0.154
2290,0.146
2291,0.154
2292,0.146
2293,0.146
2294,0.146
2295,0.146
2296,0.154
2297,0.162
2298,0.162
2299,0.162
2300,0.154
2301,0.154
2302,0.162
2303,0.154
2304,0.154
2305,0.162
2306,0.169
2307,0.162
2308,0.162
2309,0.169
2310,0.177
2311,0.185
2312,0.177
2313,0.177
2314,0.185
2315,0.177
2316,0.185
2317,0.177
2318,0.177
2319,0.169
2320,0.162
2321,0.177
2322,0.169
2323,0.162
2324,0.169
2325,0.169
2326,0.177
2327,0.177
2328,0.177
2329,0.185
2330,0.192
2331,0.200
2332,0.192
2333,0.185
2334,0.185
2335,0.200
2336,0.200
2337,0.192
2338,0.192
2339,0.192
2340,0.177
2341,0.177
2342,0.177
2343,0.177
2344,0.169
2345,0.169
2346,0.177
2347,0.177
2348,0.169
2349,0.169
2350,0.185
2351,0.192
2352,0.192
2353,0.192
2354,0.185
2355,0.185
2356,0.177
2357,0.185
2358,0.177
2359,0.177
2360,0.185
2361,0.177
2362,0.169
2363,0.169
2364,0.162
2365,0.154
2366,0.154
2367,0.154
2368,0.146
2369,0.162
2370,0.162
2371,0.169
2372,0.169
2373,0.177
2374,0.177
2375,0.177
2376,0.177
2377,0.185
2378,0.177
2379,0.177
2380,0.177
2381,0.185
2382,0.185
2383,0.162
2384,0.154
2385,0.177
2386,0.162
2387,0.154
2388,0.162
2389,0.162
2390,0.154
2391,0.154
2392,0.169
2393,0.177
2394,0.162
2395,0.162
2396,0.185
2397,0.169
2398,0.177
2399,0.169
2400,0.177
2401,0.177
2402,0.185
2403,0.177
2404,0.162
2405,0.162
2406,0.162
2407,0.162
2408,0.162
2409,0.154
2410,0.154
2411,0.162
2412,0.169
2413,0.169
2414,0.169
2415,0.169
2416,0.169
2417,0.169
2418,0.177
2419,0.185
2420,0.185
2421,0.192
2422,0.192
2423,0.208
2424,0.208
2425,0.215
2426,0.215
2427,0.208
2428,0.215
2429,0.231
2430,0.231
2431,0.223
2432,0.231
2433,0.238
2434,0.223
2435,0.231
2436,0.238
2437,0.231
2438,0.231
2439,0.231
2440,0.223
2441,0.231
2442,0.238
2443,0.238
2444,0.231
2445,0.231
2446,0.231
2447,0.231
2448,0.231
2449,0.223
2450,0.215
2451,0.200
2452,0.200
2453,0.200
2454,0.208
2455,0.208
2456,0.200
2457,0.200
2458,0.200
2459,0.200
2460,0.208
2461,0.208
2462,0.200
2463,0.200
2464,0.208
2465,0.200
2466,0.200
2467,0.200
2468,0.200
2469,0.192
2470,0.200
2471,0.200
2472,0.200
2473,0.200
2474,0.208
2475,0.192
2476,0.200
2477,0.200
2478,0.208
2479,0.200
2480,0.200
2481,0.200
2482,0.208
2483,0.215
2484,0.215
2485,0.208
2486,0.208
2487,0.200
2488,0.200
2489,0.200
2490,0.200
2491,0.192
2492,0.185
2493,0.177
2494,0.169
2495,0.169
2496,0.177
2497,0.169
2498,0.177
2499,0.162
2500,0.146
2501,0.154
2502,0.162
2503,0.162
2504,0.162
2505,0.169
2506,0.169
2507,0.169
2508,0.177
2509,0.177
2510,0.169
2511,0.169
2512,0.162
2513,0.169
2514,0.169
2515,0.162
2516,0.162
2517,0.169
2518,0.162
2519,0.169
2520,0.169
2521,0.169
2522,0.169
2523,0.169
2524,0.169
2525,0.169
2526,0.169
2527,0.162
2528,0.169
2529,0.162
2530,0.169
2531,0.169
2532,0.162
2533,0.162
2534,0.154
2535,0.162
2536,0.154
2537,0.154
2538,0.162
2539,0.154
2540,0.162
2541,0.177
2542,0.185
2543,0.192
2544,0.200
2545,0.192
2546,0.200
2547,0.215
2548,0.238
2549,0.269
2550,0.285
2551,0.308
2552,0.323
2553,0.338
2554,0.362
2555,0.362
2556,0.354
2557,0.362
2558,0.354
2559,0.346
2560,0.346
2561,0.346
2562,0.331
2563,0.300
2564,0.277
2565,0.262
2566,0.231
2567,0.208
2568,0.192
2569,0.177
2570,0.169
2571,0.146
2572,0.123
2573,0.100
2574,0.077
2575,0.077
2576,0.069
2577,0.077
2578,0.077
2579,0.077
2580,0.085
2581,0.092
2582,0.092
2583,0.092
2584,0.092
2585,0.092
2586,0.108
2587,0.123
2588,0.131
2589,0.138
2590,0.138
2591,0.138
2592,0.146
2593,0.154
2594,0.146
2595,0.154
2596,0.162
2597,0.154
2598,0.154
2599,0.162
2600,0.154
2601,0.146
2602,0.138
2603,0.138
2604,0.131
2605,0.138
2606,0.131
2607,0.123
2608,0.123
2609,0.123
2610,0.123
2611,0.123
2612,0.123
2613,0.131
2614,0.138
2615,0.146
2616,0.154
2617,0.162
2618,0.146
2619,0.138
2620,0.162
2621,0.162
2622,0.146
2623,0.146
2624,0.146
2625,0.154
2626,0.154
2627,0.162
2628,0.154
2629,0.154
2630,0.162
2631,0.162
2632,0.162
2633,0.177
2634,0.185
2635,0.185
2636,0.169
2637,0.177
2638,0.177
2639,0.169
2640,0.177
2641,0.177
2642,0.169
2643,0.185
2644,0.185
2645,0.169
2646,0.185
2647,0.177
2648,0.169
2649,0.169
2650,0.169
2651,0.162
2652,0.162
2653,0.162
2654,0.162
2655,0.162
2656,0.169
2657,0.162
2658,0.177
2659,0.185
2660,0.185
2661,0.192
2662,0.192
2663,0.192
2664,0.177
2665,0.177
2666,0.185
2667,0.177
2668,0.177
2669,0.169
2670,0.177
2671,0.185
2672,0.185
2673,0.185
2674,0.192
2675,0.200
2676,0.192
2677,0.192
2678,0.192
2679,0.185
2680,0.177
2681,0.192
2682,0.200
2683,0.200
2684,0.192
2685,0.185
2686,0.185
2687,0.185
2688,0.192
2689,0.185
2690,0.185
2691,0.177
2692,0.185
2693,0.192
2694,0.185
2695,0.185
2696,0.192
2697,0.192
2698,0.185
2699,0.185
2700,0.200
2701,0.208
2702,0.200
2703,0.192
2704,0.200
2705,0.200
2706,0.192
2707,0.185
2708,0.192
2709,0.192
2710,0.192
2711,0.192
2712,0.192
2713,0.200
2714,0.192
2715,0.200
2716,0.200
2717,0.200
2718,0.208
2719,0.200
2720,0.192
2721,0.223
2722,0.231
2723,0.223
2724,0.223
2725,0.223
2726,0.231
2727,0.223
2728,0.231
2729,0.231
2730,0.223
2731,0.238
2732,0.238
2733,0.231
2734,0.231
2735,0.238
2736,0.246
2737,0.238
2738,0.238
2739,0.246
2740,0.231
2741,0.231
2742,0.238
2743,0.246
2744,0.246
2745,0.246
2746,0.254
2747,0.262
2748,0.269
2749,0.262
2750,0.254
2751,0.269
2752,0.262
2753,0.254
2754,0.262
2755,0.254
2756,0.262
2757,0.269
2758,0.277
2759,0.277
2760,0.277
2761,0.269
2762,0.262
2763,0.269
2764,0.277
2765,0.285
2766,0.285
2767,0.285
2768,0.285
2769,0.285
2770,0.269
2771,0.277
2772,0.285
2773,0.300
2774,0.285
2775,0.277
2776,0.277
2777,0.285
2778,0.300
2779,0.300
2780,0.308
2781,0.300
2782,0.308
2783,0.315
2784,0.331
2785,0.323
2786,0.300
2787,0.308
2788,0.323
2789,0.323
2790,0.323
2791,0.315
2792,0.300
2793,0.292
2794,0.300
2795,0.300
2796,0.292
2797,0.292
2798,0.292
2799,0.285
2800,0.269
2801,0.292
2802,0.285
2803,0.277
2804,0.269
2805,0.269
2806,0.269
2807,0.269
2808,0.269
2809,0.262
2810,0.262
2811,0.254
2812,0.246
2813,0.238
2814,0.254
2815,0.246
2816,0.254
2817,0.262
2818,0.262
2819,0.262
2820,0.262
2821,0.262
2822,0.246
2823,0.246
2824,0.246
2825,0.246
2826,0.246
2827,0.246
2828,0.254
2829,0.254
2830,0.246
2831,0.231
2832,0.238
2833,0.238
2834,0.246
2835,0.238
2836,0.238
2837,0.238
2838,0.238
2839,0.238
2840,0.238
2841,0.223
2842,0.231
2843,0.231
2844,0.223
2845,0.215
2846,0.208
2847,0.208
2848,0.215
2849,0.208
2850,0.200
2851,0.200
2852,0.215
2853,0.208
2854,0.200
2855,0.208
2856,0.208
2857,0.200
2858,0.192
2859,0.200
2860,0.200
2861,0.215
2862,0.215
2863,0.208
2864,0.215
2865,0.215
2866,0.208
2867,0.200
2868,0.208
2869,0.200
2870,0.192
2871,0.185
2872,0.200
2873,0.200
2874,0.185
2875,0.185
2876,0.185
2877,0.185
2878,0.192
2879,0.192
2880,0.185
2881,0.185
2882,0.177
2883,0.192
2884,0.192
2885,0.192
2886,0.200
2887,0.200
2888,0.192
2889,0.192
2890,0.215
2891,0.223
2892,0.215
2893,0.223
2894,0.208
2895,0.215
2896,0.215
2897,0.215
2898,0.208
2899,0.200
2900,0.192
2901,0.192
2902,0.200
2903,0.215
2904,0.231
2905,0.215
2906,0.215
2907,0.200
2908,0.223
2909,0.223
2910,0.215
2911,0.215
2912,0.223
2913,0.223
2914,0.223
2915,0.223
2916,0.215
2917,0.215
2918,0.223
2919,0.231
2920,0.223
2921,0.223
2922,0.215
2923,0.223
2924,0.215
2925,0.215
2926,0.215
2927,0.223
2928,0.231
2929,0.223
2930,0.208
2931,0.231
2932,0.231
2933,0.231
2934,0.231
2935,0.231
2936,0.223
2937,0.200
2938,0.215
2939,0.231
2940,0.215
2941,0.215
2942,0.200
2943,0.192
2944,0.200
2945,0.192
2946,0.192
2947,0.192
2948,0.192
2949,0.200
2950,0.200
2951,0.200
2952,0.192
2953,0.200
2954,0.208
2955,0.200
2956,0.208
2957,0.208
2958,0.208
2959,0.208
2960,0.215
2961,0.223
2962,0.223
2963,0.223
2964,0.231
2965,0.223
2966,0.215
2967,0.215
2968,0.215
2969,0.208
2970,0.208
2971,0.192
2972,0.192
2973,0.200
2974,0.200
2975,0.192
2976,0.200
2977,0.200
2978,0.200
2979,0.200
2980,0.192
2981,0.192
2982,0.200
2983,0.200
2984,0.185
2985,0.185
2986,0.192
2987,0.185
2988,0.185
2989,0.185
2990,0.185
2991,0.185
2992,0.177
2993,0.192
2994,0.185
2995,0.177
2996,0.185
2997,0.185
2998,0.192
2999,0.185
3000,0.185
3001,0.192
3002,0.192
3003,0.177
3004,0.177
3005,0.192
3006,0.200
3007,0.192
3008,0.185
3009,0.185
3010,0.192
3011,0.185
3012,0.185
3013,0.185
3014,0.192
3015,0.192
3016,0.192
3017,0.192
3018,0.192
3019,0.192
3020,0.192
3021,0.192
3022,0.185
3023,0.185
3024,0.185
3025,0.169
3026,0.162
3027,0.169
3028,0.162
3029,0.162
3030,0.162
3031,0.146
3032,0.162
3033,0.169
3034,0.177
3035,0.185
3036,0.185
3037,0.185
3038,0.185
3039,0.177
3040,0.177
3041,0.177
3042,0.185
3043,0.185
3044,0.185
3045,0.192
3046,0.200
3047,0.200
3048,0.192
3049,0.192
3050,0.200
3051,0.200
3052,0.200
3053,0.200
3054,0.192
3055,0.185
3056,0.185
3057,0.185
3058,0.185
3059,0.177
3060,0.177
3061,0.185
3062,0.169
3063,0.169
3064,0.169
3065,0.177
3066,0.169
3067,0.192
3068,0.192
3069,0.185
3070,0.192
3071,0.208
3072,0.215
3073,0.215
3074,0.215
3075,0.215
3076,0.223
3077,0.231
3078,0.246
3079,0.254
3080,0.246
3081,0.254
3082,0.262
3083,0.254
3084,0.246
3085,0.262
3086,0.269
3087,0.262
3088,0.262
3089,0.262
3090,0.254
3091,0.246
3092,0.254
3093,0.238
3094,0.238
3095,0.246
3096,0.231
3097,0.223
3098,0.231
3099,0.231
3100,0.215
3101,0.208
3102,0.200
3103,0.169
3104,0.154
3105,0.146
3106,0.123
3107,0.108
3108,0.077
3109,0.046
3110,0.015
3111,-0.008
3112,-0.038
3113,-0.062
3114,-0.092
3115,-0.131
3116,-0.169
3117,-0.200
3118,-0.238
3119,-0.277
3120,-0.315
3121,-0.346
3122,-0.362
3123,-0.362
3124,-0.369
3125,-0.369
3126,-0.377
3127,-0.392
3128,-0.392
3129,-0.385
3130,-0.362
3131,-0.338
3132,-0.331
3133,-0.315
3134,-0.300
3135,-0.292
3136,-0.254
3137,-0.231
3138,-0.200
3139,-0.177
3140,-0.162
3141,-0.131
3142,-0.100
3143,-0.092
3144,-0.085
3145,-0.085
3146,-0.085
3147,-0.085
3148,-0.077
3149,-0.085
3150,-0.085
3151,-0.062
3152,-0.077
3153,-0.077
3154,-0.062
3155,-0.069
3156,-0.077
3157,-0.046
3158,-0.046
3159,-0.054
3160,-0.031
3161,-0.023
3162,-0.031
3163,-0.023
3164,-0.008
3165,0.008
3166,0.008
3167,0.008
3168,0.015
3169,0.031
3170,0.031
3171,0.031
3172,0.054
3173,0.062
3174,0.062
3175,0.054
3176,0.069
3177,0.085
3178,0.085
3179,0.085
3180,0.100
3181,0.115
3182,0.131
3183,0.138
3184,0.162
3185,0.185
3186,0.192
3187,0.200
3188,0.192
3189,0.192
3190,0.200
3191,0.185
3192,0.192
3193,0.192
3194,0.192
3195,0.200
3196,0.200
3197,0.200
3198,0.200
3199,0.208
3200,0.215
3201,0.223
3202,0.223
3203,0.231
3204,0.231
3205,0.231
3206,0.231
3207,0.231
3208,0.238
3209,0.238
3210,0.238
3211,0.238
3212,0.246
3213,0.238
3214,0.238
3215,0.246
3216,0.254
3217,0.238
3218,0.231
3219,0.246
3220,0.238
3221,0.231
3222,0.231
3223,0.231
3224,0.238
3225,0.238
3226,0.246
3227,0.246
3228,0.238
3229,0.238
3230,0.254
3231,0.246
3232,0.246
3233,0.238
3234,0.246
3235,0.246
3236,0.238
3237,0.246
3238,0.254
3239,0.254
3240,0.254
3241,0.254
3242,0.269
3243,0.269
3244,0.262
3245,0.262
3246,0.254
3247,0.262
3248,0.262
3249,0.269
3250,0.269
3251,0.254
3252,0.246
3253,0.254
3254,0.262
3255,0.277
3256,0.285
3257,0.285
3258,0.277
3259,0.277
3260,0.285
3261,0.285
3262,0.292
3263,0.285
3264,0.292
3265,0.285
3266,0.292
3267,0.300
3268,0.315
3269,0.308
3270,0.315
3271,0.331
3272,0.323
3273,0.331
3274,0.346
3275,0.346
3276,0.331
3277,0.338
3278,0.338
3279,0.338
3280,0.346
3281,0.354
3282,0.338
3283,0.354
3284,0.369
3285,0.369
3286,0.377
3287,0.377
3288,0.385
3289,0.400
3290,0.423
3291,0.438
3292,0.454
3293,0.469
3294,0.477
3295,0.469
3296,0.477
3297,0.508
3298,0.515
3299,0.523
3300,0.531
3301,0.531
3302,0.538
3303,0.569
3304,0.592
3305,0.592
3306,0.615
3307,0.638
3308,0.646
3309,0.638
3310,0.669
3311,0.662
3312,0.669
3313,0.692
3314,0.700
3315,0.708
3316,0.715
3317,0.731
3318,0.723
3319,0.708
3320,0.715
3321,0.731
3322,0.738
3323,0.738
3324,0.723
3325,0.715
3326,0.715
3327,0.731
3328,0.731
3329,0.715
3330,0.723
3331,0.723
3332,0.715
3333,0.715
3334,0.715
3335,0.708
3336,0.700
3337,0.700
3338,0.692
3339,0.685
3340,0.677
3341,0.685
3342,0.669
3343,0.669
3344,0.662
3345,0.646
3346,0.631
3347,0.623
3348,0.615
3349,0.600
3350,0.592
3351,0.577
3352,0.577
3353,0.569
3354,0.569
3355,0.592
3356,0.577
3357,0.569
3358,0.569
3359,0.562
3360,0.554
3361,0.546
3362,0.538
3363,0.531
3364,0.531
3365,0.523
3366,0.515
3367,0.500
3368,0.492
3369,0.485
3370,0.469
3371,0.454
3372,0.446
3373,0.431
3374,0.423
3375,0.415
3376,0.415
3377,0.408
3378,0.400
3379,0.392
3380,0.377
3381,0.369
3382,0.369
3383,0.354
3384,0.346
3385,0.354
3386,0.338
3387,0.331
3388,0.338
3389,0.346
3390,0.346
3391,0.331
3392,0.323
3393,0.323
3394,0.323
3395,0.323
3396,0.315
3397,0.300
3398,0.292
3399,0.292
3400,0.277
3401,0.277
3402,0.277
3403,0.277
3404,0.269
3405,0.277
3406,0.277
3407,0.277
3408,0.277
3409,0.277
3410,0.269
3411,0.269
3412,0.269
3413,0.269
3414,0.254
3415,0.246
3416,0.246
3417,0.254
3418,0.262
3419,0.254
3420,0.254
3421,0.246
3422,0.254
3423,0.254
3424,0.254
3425,0.254
3426,0.246
3427,0.246
3428,0.246
3429,0.254
3430,0.254
3431,0.238
3432,0.238
3433,0.238
3434,0.246
3435,0.246
3436,0.254
3437,0.246
3438,0.262
3439,0.262
3440,0.262
3441,0.262
3442,0.277
3443,0.277
3444,0.262
3445,0.246
3446,0.246
3447,0.246
3448,0.254
3449,0.246
3450,0.246
3451,0.246
3452,0.231
3453,0.246
3454,0.246
3455,0.246
3456,0.246
3457,0.238
3458,0.223
3459,0.223
3460,0.231
3461,0.231
3462,0.231
3463,0.231
3464,0.223
3465,0.231
3466,0.231
3467,0.231
3468,0.238
3469,0.231
3470,0.223
3471,0.223
3472,0.231
3473,0.223
3474,0.215
3475,0.215
3476,0.215
3477,0.200
3478,0.200
3479,0.208
3480,0.192
3481,0.192
3482,0.192
3483,0.200
3484,0.208
3485,0.215
3486,0.215
3487,0.215
3488,0.223
3489,0.223
3490,0.215
3491,0.208
3492,0.208
3493,0.200
3494,0.192
3495,0.200
3496,0.200
3497,0.200
3498,0.200
3499,0.192
3500,0.192
3501,0.192
3502,0.200
3503,0.200
3504,0.192
3505,0.192
3506,0.192
3507,0.192
3508,0.208
3509,0.192
3510,0.192
3511,0.192
3512,0.185
3513,0.177
3514,0.177
3515,0.177
3516,0.192
3517,0.185
3518,0.177
3519,0.185
3520,0.192
3521,0.185
3522,0.192
3523,0.200
3524,0.200
3525,0.200
3526,0.208
3527,0.200
3528,0.200
3529,0.200
3530,0.192
3531,0.192
3532,0.200
3533,0.192
3534,0.192
3535,0.192
3536,0.200
3537,0.192
3538,0.192
3539,0.200
3540,0.192
3541,0.185
3542,0.192
3543,0.192
3544,0.192
3545,0.200
3546,0.192
3547,0.192
3548,0.185
3549,0.185
3550,0.185
3551,0.185
3552,0.185
3553,0.185
3554,0.177
3555,0.177
3556,0.177
3557,0.169
3558,0.177
3559,0.169
3560,0.169
3561,0.169
3562,0.177
3563,0.177
3564,0.185
3565,0.177
3566,0.177
3567,0.185
3568,0.200
3569,0.185
3570,0.177
3571,0.177
3572,0.192
3573,0.192
3574,0.200
3575,0.200
3576,0.200
3577,0.208
3578,0.200
3579,0.200
3580,0.208
3581,0.215
3582,0.200
3583,0.200
3584,0.215
3585,0.200
3586,0.200
3587,0.200
3588,0.200
3589,0.200
3590,0.200
3591,0.200
3592,0.192
3593,0.192
3594,0.200
3595,0.208
3596,0.200
3597,0.208
3598,0.200
3599,0.200
3600,0.200
3601,0.200
3602,0.200
3603,0.200
3604,0.200
3605,0.177
3606,0.177
3607,0.169
3608,0.169
3609,0.162
3610,0.162
3611,0.154
3612,0.154
3613,0.162
3614,0.169
3615,0.177
3616,0.185
3617,0.185
3618,0.185
3619,0.185
3620,0.192
3621,0.192
3622,0.185
3623,0.192
3624,0.192
3625,0.192
3626,0.192
3627,0.192
3628,0.192
3629,0.185
3630,0.192
3631,0.192
3632,0.192
3633,0.200
3634,0.200
3635,0.200
3636,0.200
3637,0.200
3638,0.192
3639,0.200
3640,0.208
3641,0.192
3642,0.185
3643,0.185
3644,0.177
3645,0.162
3646,0.177
3647,0.177
3648,0.185
3649,0.192
3650,0.192
3651,0.185
3652,0.192
3653,0.192
3654,0.192
3655,0.192
3656,0.200
3657,0.200
3658,0.200
3659,0.192
3660,0.208
3661,0.215
3662,0.208
3663,0.192
3664,0.185
3665,0.185
3666,0.177
3667,0.169
3668,0.162
3669,0.169
3670,0.169
3671,0.177
3672,0.169
3673,0.177
3674,0.185
3675,0.185
3676,0.185
3677,0.185
3678,0.185
3679,0.192
3680,0.192
3681,0.185
3682,0.185
3683,0.192
3684,0.177
3685,0.177
3686,0.185
3687,0.185
3688,0.169
3689,0.162
3690,0.185
3691,0.177
3692,0.177
3693,0.185
3694,0.177
3695,0.177
3696,0.185
3697,0.177
3698,0.169
3699,0.169
3700,0.177
3701,0.185
3702,0.192
3703,0.177
3704,0.177
3705,0.192
3706,0.177
3707,0.162
3708,0.169
3709,0.169
3710,0.162
3711,0.169
3712,0.177
3713,0.185
3714,0.185
3715,0.177
3716,0.177
3717,0.185
3718,0.200
3719,0.200
3720,0.177
3721,0.185
3722,0.185
3723,0.177
3724,0.185
3725,0.192
3726,0.192
3727,0.185
3728,0.185
3729,0.177
3730,0.162
3731,0.169
3732,0.169
3733,0.162
3734,0.177
3735,0.192
3736,0.185
3737,0.185
3738,0.185
3739,0.177
3740,0.185
3741,0.192
3742,0.185
3743,0.177
3744,0.185
3745,0.200
3746,0.185
3747,0.185
3748,0.185
3749,0.177
3750,0.185
3751,0.192
3752,0.177
3753,0.185
3754,0.185
3755,0.185
3756,0.177
3757,0.185
3758,0.185
3759,0.185
3760,0.192
3761,0.192
3762,0.177
3763,0.177
3764,0.177
3765,0.185
3766,0.177
3767,0.192
3768,0.192
3769,0.177
3770,0.177
3771,0.185
3772,0.192
3773,0.192
3774,0.185
3775,0.185
3776,0.192
3777,0.192
3778,0.192
3779,0.177
3780,0.192
3781,0.192
3782,0.185
3783,0.185
3784,0.185
3785,0.185
3786,0.185
3787,0.185
3788,0.185
3789,0.185
3790,0.192
3791,0.200
3792,0.200
3793,0.185
3794,0.185
3795,0.185
3796,0.162
3797,0.162
3798,0.169
3799,0.169
3800,0.162
3801,0.169
3802,0.177
3803,0.177
3804,0.169
3805,0.177
3806,0.177
3807,0.185
3808,0.185
3809,0.177
3810,0.177
3811,0.185
3812,0.185
3813,0.192
3814,0.192
3815,0.185
3816,0.177
3817,0.185
3818,0.177
3819,0.169
3820,0.177
3821,0.177
3822,0.177
3823,0.177
3824,0.177
3825,0.177
3826,0.177
3827,0.185
3828,0.169
3829,0.162
3830,0.162
3831,0.169
3832,0.169
3833,0.177
3834,0.169
3835,0.162
3836,0.162
3837,0.177
3838,0.169
3839,0.169
3840,0.177
3841,0.169
3842,0.169
3843,0.185
3844,0.177
3845,0.177
3846,0.192
3847,0.185
3848,0.185
3849,0.192
3850,0.200
3851,0.200
3852,0.200
3853,0.192
3854,0.185
3855,0.192
3856,0.192
3857,0.192
3858,0.215
3859,0.208
3860,0.208
3861,0.215
3862,0.208
3863,0.208
3864,0.215
3865,0.208
3866,0.192
3867,0.208
3868,0.223
3869,0.208
3870,0.215
3871,0.223
3872,0.223
3873,0.231
3874,0.246
3875,0.246
3876,0.238
3877,0.246
3878,0.238
3879,0.238
3880,0.246
3881,0.231
3882,0.215
3883,0.223
3884,0.223
3885,0.215
3886,0.208
3887,0.215
3888,0.215
3889,0.215
3890,0.208
3891,0.200
3892,0.200
3893,0.192
3894,0.185
3895,0.192
3896,0.185
3897,0.185
3898,0.192
3899,0.177
3900,0.185
3901,0.185
3902,0.185
3903,0.177
3904,0.185
3905,0.185
3906,0.185
3907,0.169
3908,0.154
3909,0.169
3910,0.169
3911,0.162
3912,0.146
3913,0.154
3914,0.154
3915,0.146
3916,0.162
3917,0.162
3918,0.162
3919,0.162
3920,0.154
3921,0.154
3922,0.154
3923,0.154
3924,0.154
3925,0.146
3926,0.138
3927,0.146
3928,0.146
3929,0.146
3930,0.138
3931,0.138
3932,0.146
3933,0.138
3934,0.146
3935,0.146
3936,0.146
3937,0.146
3938,0.138
3939,0.138
3940,0.138
3941,0.138
3942,0.138
3943,0.138
3944,0.146
3945,0.146
3946,0.154
3947,0.154
3948,0.146
3949,0.154
3950,0.146
3951,0.146
3952,0.154
3953,0.162
3954,0.154
3955,0.146
3956,0.146
3957,0.146
3958,0.154
3959,0.154
3960,0.138
3961,0.146
3962,0.154
3963,0.162
3964,0.169
3965,0.169
3966,0.162
3967,0.154
3968,0.154
3969,0.154
3970,0.154
3971,0.162
3972,0.162
3973,0.162
3974,0.169
3975,0.177
3976,0.185
3977,0.192
3978,0.192
3979,0.192
3980,0.200
3981,0.208
3982,0.215
3983,0.215
3984,0.223
3985,0.231
3986,0.231
3987,0.231
3988,0.238
3989,0.231
3990,0.231
3991,0.238
3992,0.238
3993,0.262
3994,0.300
3995,0.331
3996,0.362
3997,0.400
3998,0.408
3999,0.415
4000,0.415
4001,0.385
4002,0.369
4003,0.369
4004,0.338
4005,0.323
4006,0.315
4007,0.292
4008,0.254
4009,0.231
4010,0.215
4011,0.185
4012,0.154
4013,0.131
4014,0.115
4015,0.115
4016,0.108
4017,0.092
4018,0.077
4019,0.054
4020,0.054
4021,0.054
4022,0.077
4023,0.092
4024,0.100
4025,0.100
4026,0.115
4027,0.115
4028,0.115
4029,0.108
4030,0.123
4031,0.123
4032,0.123
4033,0.108
4034,0.092
4035,0.100
4036,0.108
4037,0.115
4038,0.123
4039,0.138
4040,0.146
4041,0.154
4042,0.162
4043,0.154
4044,0.162
4045,0.154
4046,0.162
4047,0.146
4048,0.162
4049,0.162
4050,0.154
4051,0.162
4052,0.169
4053,0.177
4054,0.162
4055,0.169
4056,0.177
4057,0.169
4058,0.169
4059,0.185
4060,0.162
4061,0.169
4062,0.177
4063,0.177
4064,0.169
4065,0.185
4066,0.185
4067,0.177
4068,0.192
4069,0.177
4070,0.177
4071,0.185
4072,0.185
4073,0.177
4074,0.177
4075,0.169
4076,0.162
4077,0.162
4078,0.162
4079,0.154
4080,0.162
4081,0.169
4082,0.177
4083,0.185
4084,0.192
4085,0.192
4086,0.185
4087,0.169
4088,0.162
4089,0.169
4090,0.177
4091,0.177
4092,0.177
4093,0.169
4094,0.169
4095,0.162
4096,0.169
4097,0.185
4098,0.169
4099,0.162
4100,0.169
4101,0.177
4102,0.177
4103,0.185
4104,0.185
4105,0.177
4106,0.185
4107,0.192
4108,0.185
4109,0.185
4110,0.185
4111,0.185
4112,0.185
4113,0.192
4114,0.192
4115,0.169
4116,0.185
4117,0.185
4118,0.177
4119,0.169
4120,0.169
4121,0.169
4122,0.162
4123,0.162
4124,0.162
4125,0.154
4126,0.162
4127,0.162
4128,0.162
4129,0.162
4130,0.169
4131,0.169
4132,0.177
4133,0.185
4134,0.192
4135,0.177
4136,0.169
4137,0.177
4138,0.177
4139,0.169
4140,0.162
4141,0.154
4142,0.154
4143,0.154
4144,0.154
4145,0.162
4146,0.154
4147,0.154
4148,0.162
4149,0.169
4150,0.177
4151,0.169
4152,0.169
4153,0.169
4154,0.177
4155,0.177
4156,0.185
4157,0.169
4158,0.169
4159,0.162
4160,0.162
4161,0.162
4162,0.169
4163,0.162
4164,0.169
4165,0.162
4166,0.169
4167,0.169
4168,0.169
4169,0.177
4170,0.185
4171,0.185
4172,0.185
4173,0.177
4174,0.192
4175,0.185
4176,0.177
4177,0.177
4178,0.185
4179,0.185
4180,0.185
4181,0.192
4182,0.208
4183,0.208
4184,0.200
4185,0.208
4186,0.215
4187,0.215
4188,0.208
4189,0.200
4190,0.208
4191,0.215
4192,0.223
4193,0.223
4194,0.223
4195,0.231
4196,0.238
4197,0.238
4198,0.238
4199,0.246
4200,0.246
4201,0.254
4202,0.246
4203,0.262
4204,0.262
4205,0.269
4206,0.269
4207,0.269
4208,0.277
4209,0.277
4210,0.285
4211,0.285
4212,0.285
4213,0.285
4214,0.292
4215,0.300
4216,0.308
4217,0.300
4218,0.308
4219,0.308
4220,0.308
4221,0.323
4222,0.315
4223,0.315
4224,0.308
4225,0.308
4226,0.300
4227,0.308
4228,0.315
4229,0.308
4230,0.300
4231,0.292
4232,0.285
4233,0.285
4234,0.277
4235,0.277
4236,0.269
4237,0.269
4238,0.269
4239,0.285
4240,0.269
4241,0.269
4242,0.277
4243,0.277
4244,0.262
4245,0.269
4246,0.262
4247,0.254
4248,0.254
4249,0.262
4250,0.254
4251,0.254
4252,0.254
4253,0.254
4254,0.254
4255,0.246
4256,0.238
4257,0.246
4258,0.246
4259,0.238
4260,0.238
4261,0.238
4262,0.223
4263,0.231
4264,0.238
4265,0.223
4266,0.215
4267,0.208
4268,0.223
4269,0.223
4270,0.208
4271,0.208
4272,0.192
4273,0.192
4274,0.192
4275,0.192
4276,0.185
4277,0.169
4278,0.177
4279,0.177
4280,0.169
4281,0.177
4282,0.185
4283,0.185
4284,0.177
4285,0.169
4286,0.177
4287,0.185
4288,0.177
4289,0.177
4290,0.192
4291,0.192
4292,0.177
4293,0.185
4294,0.192
4295,0.192
4296,0.200
4297,0.192
4298,0.185
4299,0.192
4300,0.200
4301,0.200
4302,0.192
4303,0.200
4304,0.208
4305,0.208
4306,0.200
4307,0.200
4308,0.208
4309,0.200
4310,0.200
4311,0.208
4312,0.200
4313,0.192
4314,0.192
4315,0.185
4316,0.192
4317,0.208
4318,0.192
4319,0.192
4320,0.185
4321,0.200
4322,0.192
4323,0.208
4324,0.208
4325,0.208
4326,0.200
4327,0.200
4328,0.192
4329,0.208
4330,0.208
4331,0.192
4332,0.208
4333,0.200
4334,0.192
4335,0.192
4336,0.208
4337,0.192
4338,0.192
4339,0.192
4340,0.192
4341,0.192
4342,0.192
4343,0.192
4344,0.185
4345,0.185
4346,0.192
4347,0.192
4348,0.192
4349,0.185
4350,0.192
4351,0.185
4352,0.177
4353,0.192
4354,0.185
4355,0.177
4356,0.185
4357,0.185
4358,0.177
4359,0.185
4360,0.185
4361,0.177
4362,0.177
4363,0.177
4364,0.177
4365,0.192
4366,0.192
4367,0.185
4368,0.192
4369,0.185
4370,0.185
4371,0.192
4372,0.208
4373,0.215
4374,0.215
4375,0.208
4376,0.223
4377,0.231
4378,0.238
4379,0.246
4380,0.262
4381,0.292
4382,0.315
4383,0.323
4384,0.331
4385,0.354
4386,0.377
4387,0.392
4388,0.408
4389,0.423
4390,0.431
4391,0.454
4392,0.462
4393,0.477
4394,0.492
4395,0.508
4396,0.531
4397,0.546
4398,0.546
4399,0.569
4400,0.592
4401,0.608
4402,0.615
4403,0.654
4404,0.662
4405,0.677
4406,0.708
4407,0.738
4408,0.746
4409,0.792
4410,0.831
4411,0.862
4412,0.908
4413,0.954
4414,0.985
4415,1.015
4416,1.038
4417,1.000
4418,0.977
4419,0.969
4420,0.954
4421,0.931
4422,0.923
4423,0.892
4424,0.838
4425,0.792
4426,0.746
4427,0.708
4428,0.662
4429,0.600
4430,0.554
4431,0.508
4432,0.462
4433,0.423
4434,0.362
4435,0.323
4436,0.285
4437,0.246
4438,0.223
4439,0.238
4440,0.231
4441,0.223
4442,0.231
4443,0.215
4444,0.192
4445,0.200
4446,0.208
4447,0.200
4448,0.192
4449,0.185
4450,0.177
4451,0.169
4452,0.154
4453,0.154
4454,0.154
4455,0.162
4456,0.154
4457,0.154
4458,0.146
4459,0.131
4460,0.146
4461,0.146
4462,0.138
4463,0.131
4464,0.138
4465,0.138
4466,0.131
4467,0.146
4468,0.146
4469,0.146
4470,0.146
4471,0.146
4472,0.115
4473,0.108
4474,0.123
4475,0.123
4476,0.108
4477,0.115
4478,0.123
4479,0.131
4480,0.131
4481,0.131
4482,0.123
4483,0.115
4484,0.108
4485,0.115
4486,0.100
4487,0.100
4488,0.108
4489,0.100
4490,0.092
4491,0.100
4492,0.115
4493,0.108
4494,0.092
4495,0.092
4496,0.100
4497,0.108
4498,0.100
4499,0.085
4500,0.077
4501,0.085
4502,0.092
4503,0.092
4504,0.092
4505,0.085
4506,0.085
4507,0.085
4508,0.085
4509,0.077
4510,0.085
4511,0.085
4512,0.077
4513,0.077
4514,0.085
4515,0.092
4516,0.085
4517,0.077
4518,0.062
4519,0.077
4520,0.085
4521,0.092
4522,0.077
4523,0.077
4524,0.069
4525,0.062
4526,0.062
4527,0.069
4528,0.069
4529,0.069
4530,0.054
4531,0.046
4532,0.054
4533,0.054
4534,0.062
4535,0.054
4536,0.046
4537,0.046
4538,0.062
4539,0.062
4540,0.038
4541,0.038
4542,0.062
4543,0.054
4544,0.054
4545,0.062
4546,0.062
4547,0.054
4548,0.054
4549,0.046
4550,0.038
4551,0.038
4552,0.046
4553,0.054
4554,0.038
4555,0.031
4556,0.038
4557,0.054
4558,0.046
4559,0.046
4560,0.031
4561,0.031
4562,0.038
4563,0.031
4564,0.046
4565,0.038
4566,0.046
4567,0.054
4568,0.038
4569,0.038
4570,0.038
4571,0.046
4572,0.031
4573,0.023
4574,0.031
4575,0.046
4576,0.031
4577,0.023
4578,0.015
4579,0.023
4580,0.023
4581,0.008
4582,0.008
4583,0.008
4584,0.000
4585,-0.015
4586,-0.008
4587,-0.015
4588,-0.023
4589,-0.031
4590,-0.023
4591,-0.023
4592,-0.031
4593,-0.038
4594,-0.038
4595,-0.038
4596,-0.046
4597,-0.054
4598,-0.054
4599,-0.046
4600,-0.038
4601,-0.046
4602,-0.046
4603,-0.054
4604,-0.046
4605,-0.038
4606,-0.038
4607,-0.031
4608,-0.023
4609,-0.031
4610,-0.031
4611,-0.023
4612,-0.023
4613,-0.023
4614,-0.015
4615,-0.015
4616,-0.031
4617,-0.015
4618,-0.015
4619,-0.008
4620,-0.008
4621,-0.015
4622,-0.008
4623,0.008
4624,0.000
4625,0.000
4626,0.015
4627,0.015
4628,0.008
4629,0.008
4630,0.031
4631,0.038
4632,0.023
4633,0.023
4634,0.038
4635,0.031
4636,0.023
4637,0.038
4638,0.046
4639,0.038
4640,0.046
4641,0.046
4642,0.054
4643,0.054
4644,0.054
4645,0.046
4646,0.054
4647,0.062
4648,0.062
4649,0.054
4650,0.062
4651,0.054
4652,0.054
4653,0.069
4654,0.069
4655,0.062
4656,0.069
4657,0.077
4658,0.077
4659,0.077
4660,0.077
4661,0.077
4662,0.092
4663,0.092
4664,0.100
4665,0.108
4666,0.100
4667,0.108
4668,0.100
4669,0.100
4670,0.108
4671,0.115
4672,0.123
4673,0.115
4674,0.123
4675,0.123
4676,0.131
4677,0.123
4678,0.131
4679,0.138
4680,0.131
4681,0.131
4682,0.131
4683,0.131
4684,0.131
4685,0.131
4686,0.131
4687,0.138
4688,0.146
4689,0.154
4690,0.154
4691,0.154
4692,0.154
4693,0.154
4694,0.169
4695,0.169
4696,0.162
4697,0.177
4698,0.177
4699,0.177
4700,0.169
4701,0.169
4702,0.169
4703,0.162
4704,0.154
4705,0.169
4706,0.169
4707,0.169
4708,0.162
4709,0.177
4710,0.192
4711,0.200
4712,0.192
4713,0.185
4714,0.185
4715,0.192
4716,0.185
4717,0.185
4718,0.200
4719,0.192
4720,0.185
4721,0.185
4722,0.192
4723,0.192
4724,0.192
4725,0.192
4726,0.185
4727,0.192
4728,0.192
4729,0.200
4730,0.208
4731,0.215
4732,0.208
4733,0.200
4734,0.200
4735,0.208
4736,0.200
4737,0.200
4738,0.200
4739,0.200
4740,0.185
4741,0.185
4742,0.192
4743,0.200
4744,0.208
4745,0.215
4746,0.215
4747,0.215
4748,0.215
4749,0.215
4750,0.200
4751,0.208
4752,0.215
4753,0.215
4754,0.215
4755,0.208
4756,0.208
4757,0.200
4758,0.200
4759,0.200
4760,0.208
4761,0.215
4762,0.215
4763,0.208
4764,0.208
4765,0.192
4766,0.192
4767,0.200
4768,0.208
4769,0.208
4770,0.200
4771,0.208
4772,0.215
4773,0.200
4774,0.200
4775,0.208
4776,0.200
4777,0.200
4778,0.200
4779,0.192
4780,0.200
4781,0.192
4782,0.177
4783,0.177
4784,0.185
4785,0.200
4786,0.200
4787,0.200
4788,0.208
4789,0.200
4790,0.192
4791,0.208
4792,0.208
4793,0.200
4794,0.200
4795,0.215
4796,0.208
4797,0.208
4798,0.200
4799,0.208
4800,0.208
4801,0.208
4802,0.208
4803,0.215
4804,0.215
4805,0.208
4806,0.215
4807,0.208
4808,0.215
4809,0.215
4810,0.208
4811,0.200
4812,0.208
4813,0.215
4814,0.215
4815,0.208
4816,0.208
4817,0.215
4818,0.215
4819,0.223
4820,0.200
4821,0.215
4822,0.215
4823,0.200
4824,0.208
4825,0.215
4826,0.215
4827,0.223
4828,0.215
4829,0.215
4830,0.208
4831,0.215
4832,0.208
4833,0.208
4834,0.215
4835,0.208
4836,0.200
4837,0.200
4838,0.208
4839,0.208
4840,0.200
4841,0.200
4842,0.208
4843,0.200
4844,0.192
4845,0.192
4846,0.200
4847,0.185
4848,0.177
4849,0.185
4850,0.192
4851,0.192
4852,0.185
4853,0.185
4854,0.192
4855,0.185
4856,0.185
4857,0.185
4858,0.192
4859,0.185
4860,0.192
4861,0.177
4862,0.185
4863,0.192
4864,0.192
4865,0.192
4866,0.192
4867,0.185
4868,0.192
4869,0.192
4870,0.185
4871,0.185
4872,0.177
4873,0.185
4874,0.185
4875,0.185
4876,0.169
4877,0.185
4878,0.185
4879,0.185
4880,0.185
4881,0.192
4882,0.208
4883,0.200
4884,0.208
4885,0.200
4886,0.192
4887,0.192
4888,0.200
4889,0.192
4890,0.185
4891,0.192
4892,0.192
4893,0.185
4894,0.192
4895,0.185
4896,0.177
4897,0.169
4898,0.177
4899,0.177
4900,0.185
4901,0.192
4902,0.185
4903,0.185
4904,0.200
4905,0.200
4906,0.200
4907,0.200
4908,0.200
4909,0.192
4910,0.192
4911,0.192
4912,0.200
4913,0.192
4914,0.185
4915,0.185
4916,0.177
4917,0.192
4918,0.185
4919,0.177
4920,0.185
4921,0.177
4922,0.185
4923,0.192
4924,0.192
4925,0.192
4926,0.200
4927,0.192
4928,0.200
4929,0.208
4930,0.208
4931,0.192
4932,0.200
4933,0.200
4934,0.192
4935,0.192
4936,0.192
4937,0.185
4938,0.177
4939,0.169
4940,0.185
4941,0.185
4942,0.177
4943,0.169
4944,0.162
4945,0.154
4946,0.169
4947,0.162
4948,0.169
4949,0.162
4950,0.162
4951,0.162
4952,0.162
4953,0.169
4954,0.169
4955,0.169
4956,0.162
4957,0.154
4958,0.177
4959,0.185
4960,0.154
4961,0.162
4962,0.177
4963,0.169
4964,0.177
4965,0.185
4966,0.177
4967,0.162
4968,0.162
4969,0.162
4970,0.162
4971,0.185
4972,0.169
4973,0.154
4974,0.169
4975,0.169
4976,0.169
4977,0.177
4978,0.177
4979,0.169
4980,0.162
4981,0.169
4982,0.177
4983,0.177
4984,0.177
4985,0.169
4986,0.169
4987,0.169
4988,0.169
4989,0.169
4990,0.177
4991,0.169
4992,0.154
4993,0.162
4994,0.169
4995,0.169
4996,0.177
4997,0.162
4998,0.162
4999,0.169
5000,0.169
5001,0.169
5002,0.169
5003,0.177
5004,0.169
5005,0.162
5006,0.169
5007,0.169
5008,0.162
5009,0.169
5010,0.154
5011,0.162
5012,0.169
5013,0.162
5014,0.169
5015,0.177
5016,0.169
5017,0.162
5018,0.169
5019,0.177
5020,0.162
5021,0.162
5022,0.169
5023,0.154
5024,0.162
5025,0.162
5026,0.154
5027,0.162
5028,0.162
5029,0.154
5030,0.162
5031,0.169
5032,0.177
5033,0.177
5034,0.177
5035,0.185
5036,0.185
5037,0.177
5038,0.169
5039,0.162
5040,0.162
5041,0.162
5042,0.162
5043,0.169
5044,0.162
5045,0.169
5046,0.162
5047,0.154
5048,0.162
5049,0.162
5050,0.162
5051,0.162
5052,0.162
5053,0.162
5054,0.177
5055,0.177
5056,0.169
5057,0.169
5058,0.169
5059,0.162
5060,0.162
5061,0.169
5062,0.169
5063,0.162
5064,0.162
5065,0.162
5066,0.162
5067,0.162
5068,0.169
5069,0.154
5070,0.154
5071,0.169
5072,0.169
5073,0.162
5074,0.169
5075,0.177
5076,0.169
5077,0.169
5078,0.169
5079,0.177
5080,0.169
5081,0.169
5082,0.162
5083,0.162
5084,0.154
5085,0.169
5086,0.154
5087,0.162
5088,0.154
5089,0.154
5090,0.154
5091,0.162
5092,0.154
5093,0.162
5094,0.169
5095,0.169
5096,0.162
5097,0.169
5098,0.169
5099,0.169
5100,0.162
5101,0.169
5102,0.177
5103,0.169
5104,0.169
5105,0.154
5106,0.162
5107,0.162
5108,0.154
5109,0.162
5110,0.169
5111,0.146
5112,0.154
5113,0.162
5114,0.162
5115,0.162
5116,0.169
5117,0.162
5118,0.162
5119,0.169
5120,0.162
5121,0.162
5122,0.169
5123,0.169
5124,0.169
5125,0.169
5126,0.169
5127,0.162
5128,0.162
5129,0.162
5130,0.162
5131,0.169
5132,0.162
5133,0.169
5134,0.162
5135,0.169
5136,0.177
5137,0.169
5138,0.162
5139,0.154
5140,0.162
5141,0.154
5142,0.162
5143,0.169
5144,0.177
5145,0.169
5146,0.177
5147,0.185
5148,0.192
5149,0.177
5150,0.185
5151,0.192
5152,0.185
5153,0.169
5154,0.177
5155,0.169
5156,0.169
5157,0.177
5158,0.169
5159,0.154
5160,0.162
5161,0.162
5162,0.154
5163,0.154
5164,0.162
5165,0.162
5166,0.162
5167,0.169
5168,0.162
5169,0.177
5170,0.169
5171,0.177
5172,0.169
5173,0.177
5174,0.177
5175,0.177
5176,0.169
5177,0.177
5178,0.169
5179,0.169
5180,0.177
5181,0.185
5182,0.185
5183,0.185
5184,0.200
5185,0.200
5186,0.192
5187,0.200
5188,0.208
5189,0.200
5190,0.185
5191,0.192
5192,0.200
5193,0.185
5194,0.185
5195,0.177
5196,0.177
5197,0.169
5198,0.185
5199,0.185
5200,0.169
5201,0.169
5202,0.185
5203,0.185
5204,0.192
5205,0.200
5206,0.192
5207,0.192
5208,0.200
5209,0.192
5210,0.192
5211,0.192
5212,0.192
5213,0.192
5214,0.200
5215,0.200
5216,0.192
5217,0.185
5218,0.177
5219,0.162
5220,0.162
5221,0.169
5222,0.169
5223,0.162
5224,0.169
5225,0.177
5226,0.177
5227,0.169
5228,0.177
5229,0.177
5230,0.185
5231,0.177
5232,0.177
5233,0.169
5234,0.185
5235,0.185
5236,0.185
5237,0.177
5238,0.154
5239,0.169
5240,0.185
5241,0.169
5242,0.162
5243,0.169
5244,0.169
5245,0.162
5246,0.169
5247,0.177
5248,0.177
5249,0.185
5250,0.177
5251,0.177
5252,0.185
5253,0.185
5254,0.185
5255,0.185
5256,0.185
5257,0.185
5258,0.177
5259,0.177
5260,0.169
5261,0.169
5262,0.169
5263,0.169
5264,0.169
5265,0.177
5266,0.169
5267,0.177
5268,0.185
5269,0.192
5270,0.192
5271,0.192
5272,0.200
5273,0.185
5274,0.192
5275,0.200
5276,0.200
5277,0.192
5278,0.192
5279,0.192
5280,0.169
5281,0.169
5282,0.177
5283,0.169
5284,0.177
5285,0.169
5286,0.162
5287,0.162
5288,0.162
5289,0.162
5290,0.169
5291,0.162
5292,0.177
5293,0.169
5294,0.185
5295,0.192
5296,0.208
5297,0.208
5298,0.200
5299,0.208
5300,0.208
5301,0.215
5302,0.223
5303,0.223
5304,0.223
5305,0.231
5306,0.231
5307,0.231
5308,0.223
5309,0.215
5310,0.223
5311,0.223
5312,0.223
5313,0.223
5314,0.238
5315,0.231
5316,0.231
5317,0.238
5318,0.254
5319,0.238
5320,0.238
5321,0.246
5322,0.246
5323,0.238
5324,0.215
5325,0.215
5326,0.223
5327,0.208
5328,0.208
5329,0.200
5330,0.208
5331,0.208
5332,0.200
5333,0.215
5334,0.215
5335,0.200
5336,0.208
5337,0.231
5338,0.208
5339,0.200
5340,0.208
5341,0.208
5342,0.200
5343,0.200
5344,0.192
5345,0.192
5346,0.200
5347,0.208
5348,0.208
5349,0.200
5350,0.208
5351,0.208
5352,0.208
5353,0.215
5354,0.200
5355,0.192
5356,0.200
5357,0.200
5358,0.192
5359,0.200
5360,0.200
5361,0.192
5362,0.192
5363,0.185
5364,0.185
5365,0.200
5366,0.200
5367,0.192
5368,0.192
5369,0.185
5370,0.185
5371,0.177
5372,0.185
5373,0.177
5374,0.177
5375,0.169
5376,0.169
5377,0.146
5378,0.154
5379,0.146
5380,0.162
5381,0.162
5382,0.154
5383,0.169
5384,0.177
5385,0.177
5386,0.177
5387,0.169
5388,0.177
5389,0.185
5390,0.177
5391,0.177
5392,0.185
5393,0.185
5394,0.177
5395,0.169
5396,0.177
5397,0.169
5398,0.169
5399,0.177
5400,0.177
5401,0.185
5402,0.177
5403,0.169
5404,0.162
5405,0.162
5406,0.169
5407,0.177
5408,0.177
5409,0.169
5410,0.162
5411,0.169
5412,0.169
5413,0.162
5414,0.169
5415,0.169
5416,0.162
5417,0.177
5418,0.192
5419,0.200
5420,0.200
5421,0.208
5422,0.215
5423,0.223
5424,0.238
5425,0.262
5426,0.285
5427,0.300
5428,0.331
5429,0.354
5430,0.346
5431,0.346
5432,0.346
5433,0.354
5434,0.338
5435,0.338
5436,0.346
5437,0.331
5438,0.308
5439,0.269
5440,0.254
5441,0.238
5442,0.215
5443,0.192
5444,0.177
5445,0.169
5446,0.146
5447,0.115
5448,0.100
5449,0.085
5450,0.069
5451,0.062
5452,0.069
5453,0.069
5454,0.054
5455,0.062
5456,0.077
5457,0.085
5458,0.092
5459,0.100
5460,0.092
5461,0.100
5462,0.108
5463,0.123
5464,0.131
5465,0.131
5466,0.138
5467,0.154
5468,0.146
5469,0.146
5470,0.162
5471,0.169
5472,0.169
5473,0.169
5474,0.177
5475,0.162
5476,0.162
5477,0.169
5478,0.138
5479,0.154
5480,0.169
5481,0.162
5482,0.154
5483,0.154
5484,0.138
5485,0.131
5486,0.146
5487,0.154
5488,0.154
5489,0.154
5490,0.162
5491,0.169
5492,0.185
5493,0.192
5494,0.185
5495,0.177
5496,0.177
5497,0.177
5498,0.169
5499,0.162
5500,0.154
5501,0.169
5502,0.154
5503,0.162
5504,0.169
5505,0.177
5506,0.169
5507,0.177
5508,0.177
5509,0.177
5510,0.185
5511,0.177
5512,0.177
5513,0.185
5514,0.185
5515,0.192
5516,0.192
5517,0.185
5518,0.185
5519,0.169
5520,0.169
5521,0.169
5522,0.162
5523,0.162
5524,0.162
5525,0.154
5526,0.146
5527,0.146
5528,0.146
5529,0.138
5530,0.138
5531,0.138
5532,0.138
5533,0.162
5534,0.177
5535,0.177
5536,0.185
5537,0.185
5538,0.185
5539,0.192
5540,0.177
5541,0.169
5542,0.177
5543,0.154
5544,0.146
5545,0.162
5546,0.169
5547,0.154
5548,0.162
5549,0.177
5550,0.162
5551,0.177
5552,0.185
5553,0.177
5554,0.185
5555,0.192
5556,0.177
5557,0.185
5558,0.192
5559,0.192
5560,0.185
5561,0.192
5562,0.192
5563,0.192
5564,0.185
5565,0.192
5566,0.185
5567,0.185
5568,0.185
5569,0.192
5570,0.192
5571,0.192
5572,0.200
5573,0.192
5574,0.192
5575,0.192
5576,0.192
5577,0.200
5578,0.192
5579,0.192
5580,0.192
5581,0.185
5582,0.192
5583,0.200
5584,0.192
5585,0.192
5586,0.200
5587,0.192
5588,0.200
5589,0.200
5590,0.192
5591,0.200
5592,0.200
5593,0.200
5594,0.200
5595,0.208
5596,0.215
5597,0.215
5598,0.223
5599,0.223
5600,0.215
5601,0.238
5602,0.238
5603,0.231
5604,0.223
5605,0.246
5606,0.231
5607,0.231
5608,0.231
5609,0.231
5610,0.223
5611,0.238
5612,0.246
5613,0.238
5614,0.238
5615,0.231
5616,0.223
5617,0.231
5618,0.238
5619,0.238
5620,0.238
5621,0.231
5622,0.238
5623,0.246
5624,0.254
5625,0.246
5626,0.254
5627,0.262
5628,0.246
5629,0.246
5630,0.262
5631,0.262
5632,0.254
5633,0.262
5634,0.254
5635,0.254
5636,0.254
5637,0.254
5638,0.262
5639,0.262
5640,0.262
5641,0.269
5642,0.277
5643,0.285
5644,0.277
5645,0.285
5646,0.285
5647,0.285
5648,0.292
5649,0.292
5650,0.292
5651,0.285
5652,0.277
5653,0.285
5654,0.285
5655,0.292
5656,0.300
5657,0.292
5658,0.292
5659,0.292
5660,0.315
5661,0.315
5662,0.308
5663,0.308
5664,0.308
5665,0.300
5666,0.300
5667,0.308
5668,0.308
5669,0.285
5670,0.285
5671,0.292
5672,0.300
5673,0.292
5674,0.277
5675,0.269
5676,0.285
5677,0.292
5678,0.277
5679,0.277
5680,0.269
5681,0.262
5682,0.262
5683,0.269
5684,0.262
5685,0.269
5686,0.269
5687,0.262
5688,0.238
5689,0.246
5690,0.254
5691,0.262
5692,0.262
5693,0.262
5694,0.262
5695,0.269
5696,0.269
5697,0.285
5698,0.277
5699,0.262
5700,0.254
5701,0.262
5702,0.254
5703,0.246
5704,0.246
5705,0.254
5706,0.246
5707,0.246
5708,0.254
5709,0.246
5710,0.238
5711,0.238
5712,0.231
5713,0.238
5714,0.246
5715,0.238
5716,0.231
5717,0.223
5718,0.223
5719,0.231
5720,0.231
5721,0.231
5722,0.223
5723,0.215
5724,0.215
5725,0.223
5726,0.215
5727,0.215
5728,0.200
5729,0.200
5730,0.208
5731,0.215
5732,0.208
5733,0.215
5734,0.215
5735,0.208
5736,0.208
5737,0.208
5738,0.208
5739,0.215
5740,0.208
5741,0.192
5742,0.208
5743,0.200
5744,0.185
5745,0.200
5746,0.192
5747,0.177
5748,0.185
5749,0.185
5750,0.185
5751,0.185
5752,0.200
5753,0.200
5754,0.192
5755,0.192
5756,0.192
5757,0.200
5758,0.200
5759,0.185
5760,0.185
5761,0.192
5762,0.200
5763,0.192
5764,0.200
5765,0.208
5766,0.215
5767,0.223
5768,0.223
5769,0.215
5770,0.223
5771,0.208
5772,0.208
5773,0.215
5774,0.208
5775,0.192
5776,0.185
5777,0.192
5778,0.200
5779,0.208
5780,0.223
5781,0.231
5782,0.215
5783,0.223
5784,0.223
5785,0.231
5786,0.223
5787,0.223
5788,0.223
5789,0.223
5790,0.223
5791,0.223
5792,0.223
5793,0.231
5794,0.231
5795,0.231
5796,0.238
5797,0.238
5798,0.238
5799,0.231
5800,0.231
5801,0.231
5802,0.238
5803,0.231
5804,0.223
5805,0.223
5806,0.231
5807,0.223
5808,0.215
5809,0.223
5810,0.223
5811,0.223
5812,0.215
5813,0.215
5814,0.215
5815,0.215
5816,0.215
5817,0.200
5818,0.192
5819,0.192
5820,0.192
5821,0.192
5822,0.192
5823,0.185
5824,0.177
5825,0.185
5826,0.185
5827,0.185
5828,0.192
5829,0.200
5830,0.192
5831,0.185
5832,0.185
5833,0.192
5834,0.192
5835,0.200
5836,0.200
5837,0.208
5838,0.223
5839,0.223
5840,0.223
5841,0.215
5842,0.215
5843,0.208
5844,0.215
5845,0.215
5846,0.208
5847,0.192
5848,0.185
5849,0.192
5850,0.192
5851,0.192
5852,0.192
5853,0.192
5854,0.192
5855,0.192
5856,0.192
5857,0.192
5858,0.200
5859,0.215
5860,0.200
5861,0.192
5862,0.200
5863,0.200
5864,0.192
5865,0.200
5866,0.200
5867,0.177
5868,0.185
5869,0.185
5870,0.177
5871,0.185
5872,0.192
5873,0.185
5874,0.177
5875,0.192
5876,0.192
5877,0.185
5878,0.185
5879,0.185
5880,0.185
5881,0.192
5882,0.185
5883,0.185
5884,0.185
5885,0.185
5886,0.177
5887,0.185
5888,0.192
5889,0.185
5890,0.177
5891,0.177
5892,0.177
5893,0.185
5894,0.177
5895,0.185
5896,0.177
5897,0.177
5898,0.177
5899,0.177
5900,0.177
5901,0.177
5902,0.169
5903,0.162
5904,0.162
5905,0.162
5906,0.169
5907,0.169
5908,0.169
5909,0.177
5910,0.185
5911,0.185
5912,0.185
5913,0.185
5914,0.177
5915,0.169
5916,0.185
5917,0.185
5918,0.185
5919,0.177
5920,0.177
5921,0.185
5922,0.192
5923,0.192
5924,0.200
5925,0.192
5926,0.192
5927,0.192
5928,0.200
5929,0.200
5930,0.192
5931,0.192
5932,0.192
5933,0.192
5934,0.185
5935,0.177
5936,0.185
5937,0.185
5938,0.169
5939,0.169
5940,0.185
5941,0.185
5942,0.185
5943,0.200
5944,0.200
5945,0.200
5946,0.200
5947,0.223
5948,0.238
5949,0.231
5950,0.238
5951,0.246
5952,0.246
5953,0.254
5954,0.246
5955,0.254
5956,0.238
5957,0.238
5958,0.246
5959,0.262
5960,0.269
5961,0.269
5962,0.269
5963,0.254
5964,0.254
5965,0.254
5966,0.254
5967,0.246
5968,0.246
5969,0.246
5970,0.246
5971,0.246
5972,0.238
5973,0.238
5974,0.231
5975,0.223
5976,0.215
5977,0.200
5978,0.177
5979,0.162
5980,0.131
5981,0.115
5982,0.108
5983,0.085
5984,0.077
5985,0.038
5986,0.008
5987,-0.031
5988,-0.054
5989,-0.062
5990,-0.108
5991,-0.146
5992,-0.177
5993,-0.208
5994,-0.246
5995,-0.292
5996,-0.323
5997,-0.354
5998,-0.385
5999,-0.385
6000,-0.385
6001,-0.385
6002,-0.392
6003,-0.392
6004,-0.400
6005,-0.400
6006,-0.385
6007,-0.354
6008,-0.338
6009,-0.338
6010,-0.308
6011,-0.292
6012,-0.269
6013,-0.246
6014,-0.215
6015,-0.192
6016,-0.169
6017,-0.154
6018,-0.131
6019,-0.100
6020,-0.077
6021,-0.092
6022,-0.092
6023,-0.077
6024,-0.085
6025,-0.085
6026,-0.077
6027,-0.069
6028,-0.069
6029,-0.069
6030,-0.069
6031,-0.069
6032,-0.062
6033,-0.054
6034,-0.046
6035,-0.046
6036,-0.046
6037,-0.031
6038,-0.015
6039,-0.008
6040,0.000
6041,0.008
6042,0.008
6043,0.015
6044,0.023
6045,0.023
6046,0.023
6047,0.031
6048,0.046
6049,0.054
6050,0.062
6051,0.062
6052,0.054
6053,0.069
6054,0.077
6055,0.092
6056,0.108
6057,0.123
6058,0.131
6059,0.131
6060,0.146
6061,0.162
6062,0.177
6063,0.185
6064,0.185
6065,0.177
6066,0.177
6067,0.169
6068,0.169
6069,0.185
6070,0.169
6071,0.169
6072,0.185
6073,0.200
6074,0.192
6075,0.192
6076,0.200
6077,0.208
6078,0.200
6079,0.200
6080,0.200
6081,0.208
6082,0.208
6083,0.208
6084,0.215
6085,0.215
6086,0.223
6087,0.223
6088,0.223
6089,0.223
6090,0.223
6091,0.223
6092,0.231
6093,0.238
6094,0.215
6095,0.208
6096,0.215
6097,0.215
6098,0.223
6099,0.223
6100,0.223
6101,0.223
6102,0.231
6103,0.238
6104,0.238
6105,0.238
6106,0.238
6107,0.231
6108,0.231
6109,0.231
6110,0.238
6111,0.238
6112,0.238
6113,0.238
6114,0.246
6115,0.254
6116,0.246
6117,0.254
6118,0.246
6119,0.246
6120,0.262
6121,0.269
6122,0.262
6123,0.269
6124,0.269
6125,0.269
6126,0.262
6127,0.262
6128,0.262
6129,0.277
6130,0.269
6131,0.277
6132,0.285
6133,0.277
6134,0.285
6135,0.292
6136,0.292
6137,0.300
6138,0.300
6139,0.300
6140,0.300
6141,0.308
6142,0.323
6143,0.308
6144,0.323
6145,0.323
6146,0.331
6147,0.346
6148,0.346
6149,0.346
6150,0.338
6151,0.354
6152,0.362
6153,0.346
6154,0.346
6155,0.354
6156,0.354
6157,0.338
6158,0.338
6159,0.362
6160,0.369
6161,0.362
6162,0.377
6163,0.377
6164,0.385
6165,0.392
6166,0.408
6167,0.431
6168,0.438
6169,0.462
6170,0.477
6171,0.485
6172,0.485
6173,0.492
6174,0.508
6175,0.515
6176,0.523
6177,0.531
6178,0.546
6179,0.554
6180,0.569
6181,0.577
6182,0.600
6183,0.615
6184,0.631
6185,0.638
6186,0.646
6187,0.662
6188,0.677
6189,0.677
6190,0.692
6191,0.700
6192,0.708
6193,0.708
6194,0.715
6195,0.715
6196,0.715
6197,0.715
6198,0.715
6199,0.715
6200,0.731
6201,0.738
6202,0.731
6203,0.731
6204,0.723
6205,0.723
6206,0.723
6207,0.723
6208,0.715
6209,0.715
6210,0.715
6211,0.715
6212,0.700
6213,0.700
6214,0.692
6215,0.692
6216,0.685
6217,0.677
6218,0.677
6219,0.662
6220,0.654
6221,0.646
6222,0.638
6223,0.631
6224,0.615
6225,0.608
6226,0.608
6227,0.577
6228,0.577
6229,0.577
6230,0.577
6231,0.562
6232,0.562
6233,0.562
6234,0.562
6235,0.546
6236,0.538
6237,0.554
6238,0.546
6239,0.523
6240,0.523
6241,0.531
6242,0.508
6243,0.492
6244,0.492
6245,0.485
6246,0.462
6247,0.469
6248,0.446
6249,0.431
6250,0.431
6251,0.423
6252,0.408
6253,0.408
6254,0.415
6255,0.392
6256,0.377
6257,0.392
6258,0.369
6259,0.354
6260,0.369
6261,0.369
6262,0.338
6263,0.331
6264,0.338
6265,0.338
6266,0.323
6267,0.331
6268,0.331
6269,0.331
6270,0.338
6271,0.323
6272,0.308
6273,0.308
6274,0.300
6275,0.292
6276,0.300
6277,0.285
6278,0.277
6279,0.277
6280,0.269
6281,0.277
6282,0.285
6283,0.292
6284,0.285
6285,0.277
6286,0.277
6287,0.262
6288,0.262
6289,0.269
6290,0.262
6291,0.262
6292,0.262
6293,0.269
6294,0.254
6295,0.254
6296,0.262
6297,0.254
6298,0.246
6299,0.246
6300,0.238
6301,0.246
6302,0.246
6303,0.238
6304,0.246
6305,0.238
6306,0.231
6307,0.238
6308,0.238
6309,0.231
6310,0.238
6311,0.238
6312,0.246
6313,0.246
6314,0.254
6315,0.246
6316,0.254
6317,0.262
6318,0.246
6319,0.254
6320,0.254
6321,0.238
6322,0.238
6323,0.238
6324,0.223
6325,0.223
6326,0.238
6327,0.238
6328,0.231
6329,0.223
6330,0.223
6331,0.223
6332,0.223
6333,0.231
6334,0.223
6335,0.215
6336,0.215
6337,0.215
6338,0.223
6339,0.231
6340,0.223
6341,0.223
6342,0.231
6343,0.238
6344,0.223
6345,0.231
6346,0.246
6347,0.223
6348,0.215
6349,0.223
6350,0.208
6351,0.208
6352,0.208
6353,0.208
6354,0.208
6355,0.208
6356,0.200
6357,0.192
6358,0.200
6359,0.208
6360,0.208
6361,0.208
6362,0.208
6363,0.223
6364,0.231
6365,0.223
6366,0.231
6367,0.223
6368,0.215
6369,0.208
6370,0.208
6371,0.208
6372,0.215
6373,0.208
6374,0.208
6375,0.215
6376,0.208
6377,0.208
6378,0.215
6379,0.215
6380,0.215
6381,0.208
6382,0.192
6383,0.185
6384,0.200
6385,0.192
6386,0.185
6387,0.192
6388,0.185
6389,0.185
6390,0.177
6391,0.185
6392,0.169
6393,0.177
6394,0.177
6395,0.177
6396,0.177
6397,0.185
6398,0.200
6399,0.200
6400,0.200
6401,0.192
6402,0.200
6403,0.200
6404,0.185
6405,0.192
6406,0.208
6407,0.215
6408,0.208
6409,0.200
6410,0.208
6411,0.215
6412,0.208
6413,0.215
6414,0.208
6415,0.200
6416,0.208
6417,0.208
6418,0.192
6419,0.200
6420,0.200
6421,0.200
6422,0.200
6423,0.200
6424,0.185
6425,0.192
6426,0.200
6427,0.192
6428,0.185
6429,0.192
6430,0.177
6431,0.169
6432,0.169
6433,0.169
6434,0.154
6435,0.154
6436,0.154
6437,0.154
6438,0.162
6439,0.154
6440,0.162
6441,0.169
6442,0.177
6443,0.177
6444,0.192
6445,0.185
6446,0.177
6447,0.177
6448,0.185
6449,0.185
6450,0.177
6451,0.185
6452,0.185
6453,0.177
6454,0.185
6455,0.192
6456,0.192
6457,0.208
6458,0.208
6459,0.192
6460,0.185
6461,0.200
6462,0.192
6463,0.192
6464,0.192
6465,0.185
6466,0.185
6467,0.177
6468,0.185
6469,0.185
6470,0.192
6471,0.185
6472,0.177
6473,0.177
6474,0.185
6475,0.185
6476,0.192
6477,0.185
6478,0.177
6479,0.192
6480,0.185
6481,0.162
6482,0.169
6483,0.169
6484,0.162
6485,0.162
6486,0.162
6487,0.154
6488,0.162
6489,0.162
6490,0.162
6491,0.169
6492,0.185
6493,0.185
6494,0.192
6495,0.192
6496,0.185
6497,0.177
6498,0.185
6499,0.200
6500,0.192
6501,0.185
6502,0.185
6503,0.177
6504,0.185
6505,0.185
6506,0.177
6507,0.192
6508,0.208
6509,0.200
6510,0.185
6511,0.200
6512,0.200
6513,0.185
6514,0.185
6515,0.185
6516,0.169
6517,0.169
6518,0.169
6519,0.169
6520,0.162
6521,0.162
6522,0.162
6523,0.154
6524,0.162
6525,0.169
6526,0.162
6527,0.169
6528,0.169
6529,0.177
6530,0.177
6531,0.169
6532,0.154
6533,0.162
6534,0.177
6535,0.169
6536,0.169
6537,0.169
6538,0.162
6539,0.162
6540,0.162
6541,0.162
6542,0.162
6543,0.154
6544,0.162
6545,0.169
6546,0.162
6547,0.169
6548,0.177
6549,0.177
6550,0.169
6551,0.185
6552,0.177
6553,0.169
6554,0.169
6555,0.177
6556,0.177
6557,0.177
6558,0.185
6559,0.177
6560,0.177
6561,0.185
6562,0.177
6563,0.169
6564,0.169
6565,0.169
6566,0.169
6567,0.169
6568,0.177
6569,0.169
6570,0.177
6571,0.177
6572,0.177
6573,0.185
6574,0.185
6575,0.177
6576,0.177
6577,0.185
6578,0.177
6579,0.185
6580,0.192
6581,0.185
6582,0.177
6583,0.177
6584,0.185
6585,0.177
6586,0.162
6587,0.162
6588,0.154
6589,0.169
6590,0.162
6591,0.177
6592,0.177
6593,0.185
6594,0.185
6595,0.192
6596,0.192
6597,0.192
6598,0.185
6599,0.177
6600,0.177
6601,0.185
6602,0.177
6603,0.177
6604,0.169
6605,0.177
6606,0.177
6607,0.177
6608,0.177
6609,0.169
6610,0.162
6611,0.162
6612,0.169
6613,0.169
6614,0.169
6615,0.177
6616,0.185
6617,0.177
6618,0.185
6619,0.177
6620,0.185
6621,0.177
6622,0.169
6623,0.169
6624,0.185
6625,0.192
6626,0.185
6627,0.177
6628,0.185
6629,0.192
6630,0.185
6631,0.185
6632,0.192
6633,0.185
6634,0.185
6635,0.185
6636,0.185
6637,0.185
6638,0.185
6639,0.185
6640,0.185
6641,0.185
6642,0.192
6643,0.192
6644,0.192
6645,0.192
6646,0.177
6647,0.185
6648,0.185
6649,0.177
6650,0.185
6651,0.192
6652,0.185
6653,0.185
6654,0.200
6655,0.192
6656,0.185
6657,0.185
6658,0.192
6659,0.185
6660,0.185
6661,0.185
6662,0.192
6663,0.192
6664,0.185
6665,0.192
6666,0.185
6667,0.185
6668,0.177
6669,0.177
6670,0.177
6671,0.169
6672,0.162
6673,0.169
6674,0.169
6675,0.185
6676,0.185
6677,0.185
6678,0.185
6679,0.192
6680,0.192
6681,0.192
6682,0.185
6683,0.192
6684,0.185
6685,0.192
6686,0.192
6687,0.185
6688,0.177
6689,0.185
6690,0.177
6691,0.169
6692,0.169
6693,0.177
6694,0.162
6695,0.154
6696,0.162
6697,0.169
6698,0.162
6699,0.162
6700,0.169
6701,0.162
6702,0.177
6703,0.169
6704,0.169
6705,0.177
6706,0.169
6707,0.169
6708,0.162
6709,0.169
6710,0.185
6711,0.177
6712,0.185
6713,0.185
6714,0.192
6715,0.185
6716,0.185
6717,0.192
6718,0.192
6719,0.192
6720,0.177
6721,0.192
6722,0.200
6723,0.192
6724,0.177
6725,0.185
6726,0.192
6727,0.208
6728,0.215
6729,0.200
6730,0.200
6731,0.200
6732,0.192
6733,0.200
6734,0.192
6735,0.200
6736,0.223
6737,0.223
6738,0.223
6739,0.223
6740,0.223
6741,0.215
6742,0.200
6743,0.215
6744,0.215
6745,0.200
6746,0.208
6747,0.200
6748,0.208
6749,0.208
6750,0.208
6751,0.215
6752,0.215
6753,0.215
6754,0.223
6755,0.223
6756,0.208
6757,0.200
6758,0.192
6759,0.200
6760,0.200
6761,0.192
6762,0.192
6763,0.208
6764,0.192
6765,0.185
6766,0.192
6767,0.192
6768,0.192
6769,0.200
6770,0.192
6771,0.185
6772,0.177
6773,0.177
6774,0.177
6775,0.185
6776,0.192
6777,0.185
6778,0.185
6779,0.192
6780,0.200
6781,0.192
6782,0.192
6783,0.177
6784,0.169
6785,0.177
6786,0.177
6787,0.177
6788,0.177
6789,0.162
6790,0.177
6791,0.192
6792,0.169
6793,0.177
6794,0.192
6795,0.177
6796,0.162
6797,0.169
6798,0.177
6799,0.169
6800,0.177
6801,0.185
6802,0.177
6803,0.169
6804,0.169
6805,0.162
6806,0.169
6807,0.162
6808,0.162
6809,0.154
6810,0.162
6811,0.162
6812,0.146
6813,0.154
6814,0.154
6815,0.154
6816,0.154
6817,0.146
6818,0.146
6819,0.146
6820,0.154
6821,0.154
6822,0.146
6823,0.154
6824,0.162
6825,0.138
6826,0.146
6827,0.154
6828,0.146
6829,0.146
6830,0.146
6831,0.138
6832,0.131
6833,0.138
6834,0.146
6835,0.138
6836,0.146
6837,0.146
6838,0.138
6839,0.138
6840,0.131
6841,0.138
6842,0.146
6843,0.146
6844,0.146
6845,0.146
6846,0.131
6847,0.131
6848,0.154
6849,0.162
6850,0.162
6851,0.169
6852,0.169
6853,0.177
6854,0.185
6855,0.192
6856,0.192
6857,0.200
6858,0.200
6859,0.200
6860,0.215
6861,0.231
6862,0.223
6863,0.231
6864,0.223
6865,0.223
6866,0.238
6867,0.238
6868,0.246
6869,0.269
6870,0.308
6871,0.338
6872,0.362
6873,0.392
6874,0.423
6875,0.438
6876,0.423
6877,0.400
6878,0.392
6879,0.385
6880,0.362
6881,0.354
6882,0.338
6883,0.300
6884,0.292
6885,0.254
6886,0.223
6887,0.200
6888,0.185
6889,0.162
6890,0.131
6891,0.131
6892,0.115
6893,0.100
6894,0.108
6895,0.100
6896,0.069
6897,0.077
6898,0.085
6899,0.092
6900,0.108
6901,0.123
6902,0.123
6903,0.131
6904,0.131
6905,0.123
6906,0.123
6907,0.131
6908,0.115
6909,0.100
6910,0.108
6911,0.108
6912,0.123
6913,0.123
6914,0.123
6915,0.131
6916,0.131
6917,0.138
6918,0.146
6919,0.146
6920,0.154
6921,0.154
6922,0.154
6923,0.162
6924,0.162
6925,0.162
6926,0.162
6927,0.169
6928,0.162
6929,0.154
6930,0.177
6931,0.177
6932,0.162
6933,0.162
6934,0.169
6935,0.169
6936,0.162
6937,0.185
6938,0.177
6939,0.169
6940,0.162
6941,0.177
6942,0.185
6943,0.177
6944,0.185
6945,0.185
6946,0.185
6947,0.185
6948,0.185
6949,0.177
6950,0.177
6951,0.169
6952,0.162
6953,0.169
6954,0.169
6955,0.169
6956,0.177
6957,0.169
6958,0.177
6959,0.169
6960,0.177
6961,0.185
6962,0.185
6963,0.177
6964,0.169
6965,0.169
6966,0.169
6967,0.169
6968,0.169
6969,0.162
6970,0.162
6971,0.169
6972,0.169
6973,0.169
6974,0.162
6975,0.154
6976,0.162
6977,0.177
6978,0.169
6979,0.169
6980,0.177
6981,0.177
6982,0.169
6983,0.185
6984,0.169
6985,0.177
6986,0.185
6987,0.169
6988,0.177
6989,0.185
6990,0.169
6991,0.169
6992,0.185
6993,0.177
6994,0.169
6995,0.169
6996,0.177
6997,0.169
6998,0.177
6999,0.177
7000,0.169
7001,0.169
7002,0.177
7003,0.169
7004,0.162
7005,0.162
7006,0.169
7007,0.154
7008,0.169
7009,0.185
7010,0.177
7011,0.185
7012,0.185
7013,0.185
7014,0.177
7015,0.177
7016,0.177
7017,0.169
7018,0.169
7019,0.177
7020,0.177
7021,0.177
7022,0.177
7023,0.185
7024,0.177
7025,0.177
7026,0.185
7027,0.192
7028,0.192
7029,0.192
7030,0.185
7031,0.185
7032,0.185
7033,0.185
7034,0.192
7035,0.177
7036,0.169
7037,0.169
7038,0.169
7039,0.169
7040,0.169
7041,0.169
7042,0.169
7043,0.169
7044,0.169
7045,0.177
7046,0.185
7047,0.192
7048,0.185
7049,0.192
7050,0.200
7051,0.185
7052,0.192
7053,0.192
7054,0.185
7055,0.185
7056,0.192
7057,0.192
7058,0.200
7059,0.208
7060,0.215
7061,0.223
7062,0.223
7063,0.215
7064,0.223
7065,0.215
7066,0.215
7067,0.223
7068,0.223
7069,0.223
7070,0.223
7071,0.231
7072,0.231
7073,0.246
7074,0.254
7075,0.262
7076,0.269
7077,0.262
7078,0.262
7079,0.254
7080,0.262
7081,0.262
7082,0.269
7083,0.277
7084,0.285
7085,0.277
7086,0.285
7087,0.285
7088,0.292
7089,0.285
7090,0.292
7091,0.300
7092,0.300
7093,0.300
7094,0.300
7095,0.300
7096,0.308
7097,0.315
7098,0.331
7099,0.323
7100,0.308
7101,0.300
7102,0.315
7103,0.308
7104,0.308
7105,0.308
7106,0.292
7107,0.292
7108,0.292
7109,0.292
7110,0.285
7111,0.292
7112,0.285
7113,0.277
7114,0.277
7115,0.277
7116,0.285
7117,0.285
7118,0.285
7119,0.285
7120,0.292
7121,0.277
7122,0.262
7123,0.262
7124,0.262
7125,0.262
7126,0.269
7127,0.262
7128,0.254
7129,0.262
7130,0.262
7131,0.254
7132,0.254
7133,0.254
7134,0.254
7135,0.246
7136,0.246
7137,0.238
7138,0.246
7139,0.238
7140,0.238
7141,0.238
7142,0.231
7143,0.223
7144,0.215
7145,0.215
7146,0.208
7147,0.208
7148,0.208
7149,0.208
7150,0.200
7151,0.200
7152,0.192
7153,0.192
7154,0.200
7155,0.200
7156,0.192
7157,0.185
7158,0.185
7159,0.177
7160,0.185
7161,0.177
7162,0.177
7163,0.169
7164,0.192
7165,0.185
7166,0.185
7167,0.192
7168,0.192
7169,0.192
7170,0.200
7171,0.200
7172,0.200
7173,0.192
7174,0.192
7175,0.192
7176,0.192
7177,0.185
7178,0.185
7179,0.192
7180,0.192
7181,0.177
7182,0.185
7183,0.185
7184,0.192
7185,0.192
7186,0.177
7187,0.169
7188,0.177
7189,0.177
7190,0.169
7191,0.169
7192,0.169
7193,0.177
7194,0.177
7195,0.185
7196,0.192
7197,0.177
7198,0.192
7199,0.185
7200,0.177
7201,0.192
7202,0.192
7203,0.185
7204,0.185
7205,0.200
7206,0.200
7207,0.192
7208,0.185
7209,0.177
7210,0.185
7211,0.192
7212,0.192
7213,0.192
7214,0.177
7215,0.177
7216,0.185
7217,0.192
7218,0.177
7219,0.185
7220,0.192
7221,0.185
7222,0.185
7223,0.185
7224,0.185
7225,0.185
7226,0.185
7227,0.185
7228,0.177
7229,0.192
7230,0.185
7231,0.185
7232,0.192
7233,0.200
7234,0.185
7235,0.192
7236,0.185
7237,0.200
7238,0.192
7239,0.185
7240,0.192
7241,0.185
7242,0.185
7243,0.192
7244,0.192
7245,0.200
7246,0.192
7247,0.200
7248,0.223
7249,0.231
7250,0.223
7251,0.238
7252,0.246
7253,0.254
7254,0.246
7255,0.254
7256,0.269
7257,0.285
7258,0.308
7259,0.331
7260,0.354
7261,0.369
7262,0.392
7263,0.408
7264,0.431
7265,0.431
7266,0.446
7267,0.462
7268,0.477
7269,0.492
7270,0.508
7271,0.523
7272,0.538
7273,0.554
7274,0.569
7275,0.569
7276,0.592
7277,0.608
7278,0.623
7279,0.654
7280,0.677
7281,0.700
7282,0.723
7283,0.731
7284,0.754
7285,0.800
7286,0.831
7287,0.862
7288,0.900
7289,0.946
7290,0.985
7291,1.023
7292,1.038
7293,1.015
7294,0.992
7295,0.985
7296,0.962
7297,0.931
7298,0.923
7299,0.900
7300,0.854
7301,0.785
7302,0.754
7303,0.700
7304,0.654
7305,0.608
7306,0.569
7307,0.523
7308,0.477
7309,0.431
7310,0.377
7311,0.338
7312,0.292
7313,0.246
7314,0.223
7315,0.231
7316,0.231
7317,0.215
7318,0.215
7319,0.215
7320,0.215
7321,0.200
7322,0.208
7323,0.200
7324,0.192
7325,0.185
7326,0.169
7327,0.177
7328,0.169
7329,0.162
7330,0.154
7331,0.154
7332,0.146
7333,0.146
7334,0.146
7335,0.138
7336,0.138
7337,0.154
7338,0.154
7339,0.162
7340,0.154
7341,0.162
7342,0.154
7343,0.154
7344,0.154
7345,0.146
7346,0.131
7347,0.146
7348,0.138
7349,0.115
7350,0.131
7351,0.138
7352,0.138
7353,0.138
7354,0.146
7355,0.131
7356,0.131
7357,0.146
7358,0.123
7359,0.123
7360,0.131
7361,0.131
7362,0.123
7363,0.123
7364,0.131
7365,0.123
7366,0.108
7367,0.115
7368,0.115
7369,0.108
7370,0.115
7371,0.115
7372,0.108
7373,0.108
7374,0.100
7375,0.092
7376,0.085
7377,0.085
7378,0.092
7379,0.085
7380,0.077
7381,0.085
7382,0.085
7383,0.085
7384,0.085
7385,0.077
7386,0.077
7387,0.069
7388,0.077
7389,0.077
7390,0.085
7391,0.085
7392,0.077
7393,0.077
7394,0.069
7395,0.077
7396,0.069
7397,0.077
7398,0.069
7399,0.062
7400,0.062
7401,0.069
7402,0.062
7403,0.069
7404,0.046
7405,0.046
7406,0.054
7407,0.046
7408,0.054
7409,0.054
7410,0.038
7411,0.038
7412,0.046
7413,0.062
7414,0.046
7415,0.046
7416,0.038
7417,0.046
7418,0.062
7419,0.062
7420,0.046
7421,0.038
7422,0.046
7423,0.054
7424,0.062
7425,0.046
7426,0.023
7427,0.031
7428,0.038
7429,0.038
7430,0.038
7431,0.031
7432,0.038
7433,0.046
7434,0.038
7435,0.031
7436,0.046
7437,0.054
7438,0.038
7439,0.038
7440,0.038
7441,0.054
7442,0.038
7443,0.031
7444,0.038
7445,0.038
7446,0.046
7447,0.038
7448,0.038
7449,0.038
7450,0.046
7451,0.031
7452,0.023
7453,0.038
7454,0.031
7455,0.023
7456,0.023
7457,0.023
7458,0.023
7459,0.023
7460,0.008
7461,0.000
7462,0.000
7463,-0.008
7464,-0.015
7465,-0.015
7466,-0.015
7467,-0.038
7468,-0.038
7469,-0.031
7470,-0.031
7471,-0.038
7472,-0.038
7473,-0.046
7474,-0.046
7475,-0.046
7476,-0.038
7477,-0.046
7478,-0.046
7479,-0.046
7480,-0.046
7481,-0.031
7482,-0.031
7483,-0.015
7484,-0.023
7485,-0.023
7486,-0.031
7487,-0.023
7488,-0.023
7489,-0.023
7490,-0.023
7491,-0.023
7492,-0.015
7493,-0.023
7494,-0.023
7495,-0.015
7496,-0.008
7497,-0.023
7498,-0.008
7499,0.008
7500,-0.008
7501,0.000
7502,0.008
7503,0.008
7504,0.008
7505,0.023
7506,0.015
7507,0.008
7508,0.031
7509,0.031
7510,0.015
7511,0.015
7512,0.038
7513,0.038
7514,0.038
7515,0.031
7516,0.046
7517,0.062
7518,0.062
7519,0.054
7520,0.054
7521,0.062
7522,0.062
7523,0.062
7524,0.054
7525,0.069
7526,0.077
7527,0.077
7528,0.069
7529,0.069
7530,0.069
7531,0.069
7532,0.085
7533,0.092
7534,0.077
7535,0.069
7536,0.085
7537,0.085
7538,0.100
7539,0.115
7540,0.108
7541,0.100
7542,0.108
7543,0.115
7544,0.123
7545,0.123
7546,0.123
7547,0.123
7548,0.131
7549,0.131
7550,0.123
7551,0.123
7552,0.131
7553,0.131
7554,0.131
7555,0.138
7556,0.138
7557,0.131
7558,0.123
7559,0.123
7560,0.123
7561,0.138
7562,0.146
7563,0.131
7564,0.146
7565,0.169
7566,0.169
7567,0.169
7568,0.185
7569,0.177
7570,0.169
7571,0.185
7572,0.177
7573,0.177
7574,0.169
7575,0.169
7576,0.169
7577,0.177
7578,0.169
7579,0.169
7580,0.169
7581,0.169
7582,0.169
7583,0.177
7584,0.185
7585,0.192
7586,0.192
7587,0.185
7588,0.185
7589,0.185
7590,0.192
7591,0.200
7592,0.200
7593,0.192
7594,0.185
7595,0.185
7596,0.185
7597,0.192
7598,0.200
7599,0.192
7600,0.200
7601,0.208
7602,0.200
7603,0.200
7604,0.200
7605,0.200
7606,0.208
7607,0.208
7608,0.208
7609,0.208
7610,0.208
7611,0.200
7612,0.192
7613,0.200
7614,0.200
7615,0.185
7616,0.185
7617,0.185
7618,0.169
7619,0.177
7620,0.200
7621,0.200
7622,0.192
7623,0.192
7624,0.192
7625,0.200
7626,0.208
7627,0.208
7628,0.208
7629,0.208
7630,0.200
7631,0.208
7632,0.215
7633,0.215
7634,0.208
7635,0.200
7636,0.215
7637,0.215
7638,0.215
7639,0.208
7640,0.200
7641,0.200
7642,0.208
7643,0.215
7644,0.208
7645,0.200
7646,0.215
7647,0.215
7648,0.223
7649,0.223
7650,0.215
7651,0.231
7652,0.231
7653,0.223
7654,0.215
7655,0.215
7656,0.215
7657,0.223
7658,0.215
7659,0.200
7660,0.215
7661,0.223
7662,0.223
7663,0.215
7664,0.215
7665,0.215
7666,0.223
7667,0.231
7668,0.215
7669,0.215
7670,0.231
7671,0.223
7672,0.223
7673,0.231
7674,0.223
7675,0.223
7676,0.238
7677,0.223
7678,0.223
7679,0.223
7680,0.215
7681,0.215
7682,0.223
7683,0.215
7684,0.215
7685,0.223
7686,0.215
7687,0.215
7688,0.223
7689,0.223
7690,0.215
7691,0.215
7692,0.208
7693,0.208
7694,0.215
7695,0.215
7696,0.208
7697,0.208
7698,0.215
7699,0.208
7700,0.208
7701,0.208
7702,0.200
7703,0.200
7704,0.200
7705,0.208
7706,0.208
7707,0.208
7708,0.215
7709,0.215
7710,0.208
7711,0.215
7712,0.208
7713,0.200
7714,0.215
7715,0.223
7716,0.215
7717,0.215
7718,0.215
7719,0.208
7720,0.200
7721,0.208
7722,0.208
7723,0.192
7724,0.192
7725,0.192
7726,0.192
7727,0.185
7728,0.185
7729,0.192
7730,0.192
7731,0.192
7732,0.200
7733,0.192
7734,0.192
7735,0.200
7736,0.192
7737,0.192
7738,0.185
7739,0.185
7740,0.177
7741,0.185
7742,0.192
7743,0.192
7744,0.192
7745,0.200
7746,0.200
7747,0.200
7748,0.200
7749,0.192
7750,0.192
7751,0.200
7752,0.192
7753,0.192
7754,0.208
7755,0.200
7756,0.192
7757,0.208
7758,0.200
7759,0.200
7760,0.200
7761,0.200
7762,0.200
7763,0.200
7764,0.200
7765,0.200
7766,0.200
7767,0.200
7768,0.200
7769,0.192
7770,0.185
7771,0.177
7772,0.177
7773,0.177
7774,0.185
7775,0.185
7776,0.185
7777,0.192
7778,0.192
7779,0.200
7780,0.200
7781,0.215
7782,0.215
7783,0.208
7784,0.208
7785,0.200
7786,0.192
7787,0.200
7788,0.200
7789,0.192
7790,0.185
7791,0.177
7792,0.177
7793,0.169
7794,0.177
7795,0.169
7796,0.169
7797,0.185
7798,0.177
7799,0.177
7800,0.192
7801,0.185
7802,0.192
7803,0.192
7804,0.200
7805,0.192
7806,0.192
7807,0.185
7808,0.169
7809,0.185
7810,0.192
7811,0.177
7812,0.169
7813,0.169
7814,0.162
7815,0.162
7816,0.169
7817,0.162
7818,0.162
7819,0.169
7820,0.162
7821,0.162
7822,0.162
7823,0.169
7824,0.169
7825,0.177
7826,0.177
7827,0.169
7828,0.177
7829,0.177
7830,0.169
7831,0.177
7832,0.169
7833,0.162
7834,0.162
7835,0.169
7836,0.162
7837,0.162
7838,0.169
7839,0.169
7840,0.169
7841,0.169
7842,0.169
7843,0.169
7844,0.169
7845,0.177
7846,0.169
7847,0.177
7848,0.177
7849,0.177
7850,0.177
7851,0.169
7852,0.162
7853,0.169
7854,0.162
7855,0.162
7856,0.162
7857,0.154
7858,0.146
7859,0.154
7860,0.162
7861,0.162
7862,0.154
7863,0.169
7864,0.162
7865,0.154
7866,0.162
7867,0.177
7868,0.169
7869,0.162
7870,0.169
7871,0.169
7872,0.177
7873,0.169
7874,0.162
7875,0.162
7876,0.169
7877,0.162
7878,0.154
7879,0.154
7880,0.162
7881,0.154
7882,0.154
7883,0.169
7884,0.162
7885,0.162
7886,0.169
7887,0.169
7888,0.162
7889,0.162
7890,0.162
7891,0.154
7892,0.154
7893,0.162
7894,0.162
7895,0.154
7896,0.154
7897,0.162
7898,0.154
7899,0.154
7900,0.154
7901,0.154
7902,0.154
7903,0.154
7904,0.154
7905,0.154
7906,0.154
7907,0.154
7908,0.146
7909,0.154
7910,0.154
7911,0.146
7912,0.146
7913,0.154
7914,0.154
7915,0.154
7916,0.154
7917,0.154
7918,0.154
7919,0.146
7920,0.154
7921,0.162
7922,0.162
7923,0.162
7924,0.162
7925,0.169
7926,0.162
7927,0.162
7928,0.154
7929,0.154
7930,0.162
7931,0.162
7932,0.162
7933,0.169
7934,0.177
7935,0.177
7936,0.169
7937,0.162
7938,0.146
7939,0.162
7940,0.177
7941,0.169
7942,0.169
7943,0.162
7944,0.169
7945,0.169
7946,0.162
7947,0.162
7948,0.169
7949,0.169
7950,0.162
7951,0.162
7952,0.154
7953,0.154
7954,0.154
7955,0.154
7956,0.154
7957,0.169
7958,0.162
7959,0.146
7960,0.154
7961,0.169
7962,0.169
7963,0.169
7964,0.169
7965,0.169
7966,0.162
7967,0.162
7968,0.162
7969,0.162
7970,0.162
7971,0.154
7972,0.162
7973,0.162
7974,0.162
7975,0.162
7976,0.169
7977,0.154
7978,0.154
7979,0.162
7980,0.162
7981,0.154
7982,0.162
7983,0.162
7984,0.169
7985,0.177
7986,0.162
7987,0.162
7988,0.162
7989,0.162
7990,0.162
7991,0.177
7992,0.169
7993,0.169
7994,0.177
7995,0.169
7996,0.177
7997,0.185
7998,0.177
7999,0.169
8000,0.177
8001,0.169
8002,0.177
8003,0.169
8004,0.169
8005,0.169
8006,0.169
8007,0.169
8008,0.177
8009,0.169
8010,0.177
8011,0.177
8012,0.185
8013,0.177
8014,0.185
8015,0.177
8016,0.185
8017,0.177
8018,0.177
8019,0.177
8020,0.185
8021,0.185
8022,0.185
8023,0.192
8024,0.192
8025,0.185
8026,0.177
8027,0.177
8028,0.185
8029,0.177
8030,0.169
8031,0.162
8032,0.162
8033,0.169
8034,0.162
8035,0.177
8036,0.169
8037,0.169
8038,0.169
8039,0.169
8040,0.169
8041,0.169
8042,0.162
8043,0.154
8044,0.154
8045,0.154
8046,0.154
8047,0.154
8048,0.154
8049,0.146
8050,0.146
8051,0.146
8052,0.146
8053,0.154
8054,0.146
8055,0.162
8056,0.162
8057,0.169
8058,0.185
8059,0.185
8060,0.177
8061,0.169
8062,0.185
8063,0.177
8064,0.185
8065,0.177
8066,0.169
8067,0.177
8068,0.192
8069,0.185
8070,0.185
8071,0.177
8072,0.169
8073,0.169
8074,0.162
8075,0.162
8076,0.146
8077,0.169
8078,0.185
8079,0.177
8080,0.169
8081,0.185
8082,0.185
8083,0.185
8084,0.185
8085,0.192
8086,0.192
8087,0.177
8088,0.185
8089,0.192
8090,0.192
8091,0.192
8092,0.185
8093,0.185
8094,0.185
8095,0.185
8096,0.177
8097,0.169
8098,0.177
8099,0.177
8100,0.177
8101,0.192
8102,0.200
8103,0.192
8104,0.200
8105,0.200
8106,0.192
8107,0.185
8108,0.185
8109,0.192
8110,0.192
8111,0.192
8112,0.185
8113,0.192
8114,0.192
8115,0.177
8116,0.185
8117,0.177
8118,0.169
8119,0.169
8120,0.177
8121,0.169
8122,0.169
8123,0.177
8124,0.177
8125,0.177
8126,0.192
8127,0.185
8128,0.177
8129,0.169
8130,0.177
8131,0.177
8132,0.169
8133,0.169
8134,0.177
8135,0.169
8136,0.162
8137,0.162
8138,0.154
8139,0.154
8140,0.154
8141,0.154
8142,0.162
8143,0.177
8144,0.177
8145,0.169
8146,0.169
8147,0.169
8148,0.185
8149,0.192
8150,0.177
8151,0.192
8152,0.192
8153,0.192
8154,0.192
8155,0.192
8156,0.177
8157,0.169
8158,0.185
8159,0.177
8160,0.169
8161,0.169
8162,0.169
8163,0.169
8164,0.177
8165,0.177
8166,0.169
8167,0.177
8168,0.177
8169,0.177
8170,0.177
8171,0.177
8172,0.185
8173,0.192
8174,0.192
8175,0.200
8176,0.208
8177,0.215
8178,0.215
8179,0.208
8180,0.223
8181,0.231
8182,0.231
8183,0.223
8184,0.238
8185,0.231
8186,0.231
8187,0.223
8188,0.231
8189,0.223
8190,0.223
8191,0.231
8192,0.231
8193,0.223
8194,0.238
8195,0.238
8196,0.231
8197,0.223
8198,0.231
8199,0.223
8200,0.223
8201,0.231
8202,0.238
8203,0.231
8204,0.215
8205,0.215
8206,0.215
8207,0.200
8208,0.200
8209,0.208
8210,0.208
8211,0.215
8212,0.208
8213,0.200
8214,0.200
8215,0.200
8216,0.200
8217,0.185
8218,0.192
8219,0.192
8220,0.185
8221,0.192
8222,0.200
8223,0.200
8224,0.192
8225,0.200
8226,0.200
8227,0.208
8228,0.200
8229,0.200
8230,0.208
8231,0.200
8232,0.200
8233,0.192
8234,0.200
8235,0.192
8236,0.200
8237,0.208
8238,0.208
8239,0.215
8240,0.208
8241,0.215
8242,0.208
8243,0.200
8244,0.192
8245,0.185
8246,0.185
8247,0.177
8248,0.169
8249,0.162
8250,0.162
8251,0.154
8252,0.138
8253,0.146
8254,0.146
8255,0.138
8256,0.146
8257,0.162
8258,0.154
8259,0.154
8260,0.169
8261,0.177
8262,0.169
8263,0.169
8264,0.169
8265,0.169
8266,0.162
8267,0.169
8268,0.169
8269,0.162
8270,0.162
8271,0.162
8272,0.154
8273,0.154
8274,0.154
8275,0.162
8276,0.162
8277,0.146
8278,0.154
8279,0.162
8280,0.169
8281,0.169
8282,0.169
8283,0.162
8284,0.162
8285,0.169
8286,0.162
8287,0.169
8288,0.169
8289,0.154
8290,0.154
8291,0.162
8292,0.154
8293,0.169
8294,0.169
8295,0.169
8296,0.185
8297,0.200
8298,0.200
8299,0.208
8300,0.223
8301,0.246
8302,0.285
8303,0.308
8304,0.331
8305,0.346
8306,0.346
8307,0.354
8308,0.362
8309,0.362
8310,0.354
8311,0.354
8312,0.354
8313,0.346
8314,0.315
8315,0.285
8316,0.262
8317,0.246
8318,0.223
8319,0.215
8320,0.185
8321,0.169
8322,0.154
8323,0.138
8324,0.108
8325,0.100
8326,0.077
8327,0.062
8328,0.062
8329,0.069
8330,0.069
8331,0.062
8332,0.069
8333,0.077
8334,0.077
8335,0.077
8336,0.085
8337,0.085
8338,0.085
8339,0.100
8340,0.115
8341,0.108
8342,0.115
8343,0.131
8344,0.138
8345,0.138
8346,0.154
8347,0.146
8348,0.154
8349,0.154
8350,0.162
8351,0.154
8352,0.146
8353,0.146
8354,0.138
8355,0.138
8356,0.138
8357,0.146
8358,0.146
8359,0.146
8360,0.138
8361,0.146
8362,0.146
8363,0.146
8364,0.138
8365,0.138
8366,0.146
8367,0.138
8368,0.162
8369,0.169
8370,0.169
8371,0.169
8372,0.169
8373,0.169
8374,0.169
8375,0.169
8376,0.177
8377,0.177
8378,0.169
8379,0.185
8380,0.192
8381,0.185
8382,0.192
8383,0.192
8384,0.192
8385,0.192
8386,0.200
8387,0.192
8388,0.192
8389,0.192
8390,0.192
8391,0.200
8392,0.208
8393,0.185
8394,0.185
8395,0.185
8396,0.192
8397,0.185
8398,0.177
8399,0.169
8400,0.169
8401,0.169
8402,0.169
8403,0.154
8404,0.146
8405,0.146
8406,0.146
8407,0.154
8408,0.162
8409,0.154
8410,0.162
8411,0.177
8412,0.177
8413,0.192
8414,0.177
8415,0.177
8416,0.177
8417,0.169
8418,0.154
8419,0.169
8420,0.162
8421,0.154
8422,0.162
8423,0.162
8424,0.154
8425,0.154
8426,0.169
8427,0.169
8428,0.177
8429,0.185
8430,0.177
8431,0.177
8432,0.177
8433,0.177
8434,0.185
8435,0.169
8436,0.169
8437,0.185
8438,0.185
8439,0.177
8440,0.185
8441,0.185
8442,0.185
8443,0.185
8444,0.185
8445,0.177
8446,0.185
8447,0.185
8448,0.192
8449,0.192
8450,0.192
8451,0.200
8452,0.208
8453,0.200
8454,0.192
8455,0.208
8456,0.200
8457,0.208
8458,0.208
8459,0.208
8460,0.200
8461,0.208
8462,0.208
8463,0.200
8464,0.200
8465,0.215
8466,0.208
8467,0.200
8468,0.200
8469,0.200
8470,0.200
8471,0.200
8472,0.208
8473,0.215
8474,0.223
8475,0.223
8476,0.231
8477,0.238
8478,0.246
8479,0.238
8480,0.238
8481,0.238
8482,0.238
8483,0.238
8484,0.238
8485,0.223
8486,0.223
8487,0.215
8488,0.215
8489,0.223
8490,0.231
8491,0.231
8492,0.215
8493,0.215
8494,0.223
8495,0.215
8496,0.223
8497,0.231
8498,0.231
8499,0.231
8500,0.231
8501,0.223
8502,0.223
8503,0.238
8504,0.238
8505,0.238
8506,0.246
8507,0.254
8508,0.238
8509,0.246
8510,0.246
8511,0.238
8512,0.262
8513,0.262
8514,0.254
8515,0.262
8516,0.262
8517,0.262
8518,0.269
8519,0.269
8520,0.277
8521,0.285
8522,0.292
8523,0.277
8524,0.277
8525,0.292
8526,0.292
8527,0.285
8528,0.285
8529,0.285
8530,0.285
8531,0.292
8532,0.300
8533,0.292
8534,0.292
8535,0.300
8536,0.300
8537,0.308
8538,0.323
8539,0.315
8540,0.300
8541,0.308
8542,0.315
8543,0.315
8544,0.315
8545,0.315
8546,0.308
8547,0.300
8548,0.308
8549,0.308
8550,0.300
8551,0.300
8552,0.285
8553,0.277
8554,0.285
8555,0.285
8556,0.285
8557,0.285
8558,0.277
8559,0.269
8560,0.269
8561,0.269
8562,0.269
8563,0.262
8564,0.262
8565,0.246
8566,0.246
8567,0.262
8568,0.269
8569,0.262
8570,0.254
8571,0.254
8572,0.277
8573,0.269
8574,0.269
8575,0.269
8576,0.254
8577,0.246
8578,0.254
8579,0.246
8580,0.238
8581,0.254
8582,0.254
8583,0.246
8584,0.254
8585,0.254
8586,0.246
8587,0.254
8588,0.246
8589,0.238
8590,0.231
8591,0.231
8592,0.215
8593,0.215
8594,0.223
8595,0.231
8596,0.231
8597,0.215
8598,0.208
8599,0.215
8600,0.215
8601,0.215
8602,0.208
8603,0.215
8604,0.208
8605,0.208
8606,0.215
8607,0.208
8608,0.208
8609,0.208
8610,0.192
8611,0.208
8612,0.215
8613,0.200
8614,0.192
8615,0.200
8616,0.200
8617,0.200
8618,0.192
8619,0.192
8620,0.192
8621,0.192
8622,0.192
8623,0.185
8624,0.177
8625,0.185
8626,0.185
8627,0.177
8628,0.177
8629,0.185
8630,0.185
8631,0.192
8632,0.192
8633,0.177
8634,0.177
8635,0.185
8636,0.169
8637,0.177
8638,0.185
8639,0.192
8640,0.185
8641,0.200
8642,0.208
8643,0.192
8644,0.192
8645,0.200
8646,0.200
8647,0.185
8648,0.192
8649,0.185
8650,0.177
8651,0.177
8652,0.185
8653,0.192
8654,0.192
8655,0.200
8656,0.192
8657,0.200
8658,0.200
8659,0.208
8660,0.200
8661,0.208
8662,0.200
8663,0.208
8664,0.208
8665,0.200
8666,0.208
8667,0.215
8668,0.215
8669,0.215
8670,0.215
8671,0.215
8672,0.208
8673,0.208
8674,0.223
8675,0.215
8676,0.223
8677,0.231
8678,0.223
8679,0.223
8680,0.223
8681,0.223
8682,0.215
8683,0.223
8684,0.231
8685,0.215
8686,0.215
8687,0.223
8688,0.215
8689,0.200
8690,0.192
8691,0.192
8692,0.200
8693,0.192
8694,0.192
8695,0.192
8696,0.185
8697,0.192
8698,0.192
8699,0.185
8700,0.192
8701,0.192
8702,0.185
8703,0.177
8704,0.185
8705,0.192
8706,0.177
8707,0.185
8708,0.185
8709,0.177
8710,0.177
8711,0.185
8712,0.200
8713,0.200
8714,0.192
8715,0.200
8716,0.200
8717,0.200
8718,0.208
8719,0.200
8720,0.192
8721,0.200
8722,0.192
8723,0.185
8724,0.185
8725,0.192
8726,0.177
8727,0.185
8728,0.200
8729,0.192
8730,0.192
8731,0.185
8732,0.177
8733,0.192
8734,0.200
8735,0.185
8736,0.185
8737,0.185
8738,0.192
8739,0.192
8740,0.200
8741,0.192
8742,0.192
8743,0.192
8744,0.192
8745,0.192
8746,0.192
8747,0.192
8748,0.200
8749,0.200
8750,0.192
8751,0.200
8752,0.200
8753,0.192
8754,0.192
8755,0.200
8756,0.192
8757,0.192
8758,0.208
8759,0.192
8760,0.185
8761,0.192
8762,0.192
8763,0.200
8764,0.200
8765,0.200
8766,0.192
8767,0.200
8768,0.192
8769,0.200
8770,0.185
8771,0.192
8772,0.200
8773,0.185
8774,0.185
8775,0.192
8776,0.185
8777,0.169
8778,0.177
8779,0.169
8780,0.169
8781,0.169
8782,0.177
8783,0.169
8784,0.169
8785,0.177
8786,0.177
8787,0.192
8788,0.192
8789,0.177
8790,0.185
8791,0.192
8792,0.192
8793,0.185
8794,0.177
8795,0.185
8796,0.185
8797,0.192
8798,0.192
8799,0.192
8800,0.185
8801,0.185
8802,0.177
8803,0.185
8804,0.192
8805,0.200
8806,0.185
8807,0.192
8808,0.192
8809,0.192
8810,0.185
8811,0.169
8812,0.177
8813,0.169
8814,0.177
8815,0.169
8816,0.162
8817,0.162
8818,0.169
8819,0.185
8820,0.185
8821,0.185
8822,0.192
8823,0.200
8824,0.200
8825,0.208
8826,0.223
8827,0.215
8828,0.215
8829,0.223
8830,0.231
8831,0.231
8832,0.231
8833,0.246
8834,0.246
8835,0.254
8836,0.262
8837,0.262
8838,0.262
8839,0.262
8840,0.238
8841,0.238
8842,0.238
8843,0.231
8844,0.238
8845,0.254
8846,0.246
8847,0.231
8848,0.231
8849,0.246
8850,0.238
8851,0.223
8852,0.215
8853,0.208
8854,0.185
8855,0.169
8856,0.154
8857,0.138
8858,0.131
8859,0.108
8860,0.092
8861,0.062
8862,0.015
8863,-0.008
8864,-0.023
8865,-0.054
8866,-0.085
8867,-0.123
8868,-0.154
8869,-0.192
8870,-0.231
8871,-0.262
8872,-0.300
8873,-0.338
8874,-0.362
8875,-0.377
8876,-0.385
8877,-0.369
8878,-0.385
8879,-0.392
8880,-0.392
8881,-0.392
8882,-0.392
8883,-0.369
8884,-0.338
8885,-0.331
8886,-0.315
8887,-0.292
8888,-0.285
8889,-0.254
8890,-0.231
8891,-0.200
8892,-0.169
8893,-0.146
8894,-0.123
8895,-0.092
8896,-0.077
8897,-0.077
8898,-0.085
8899,-0.077
8900,-0.077
8901,-0.077
8902,-0.069
8903,-0.077
8904,-0.077
8905,-0.069
8906,-0.077
8907,-0.069
8908,-0.069
8909,-0.069
8910,-0.054
8911,-0.046
8912,-0.046
8913,-0.038
8914,-0.031
8915,-0.015
8916,0.000
8917,0.008
8918,0.008
8919,0.023
8920,0.023
8921,0.015
8922,0.031
8923,0.031
8924,0.023
8925,0.038
8926,0.054
8927,0.054
8928,0.038
8929,0.046
8930,0.069
8931,0.085
8932,0.092
8933,0.108
8934,0.123
8935,0.131
8936,0.154
8937,0.162
8938,0.177
8939,0.185
8940,0.185
8941,0.185
8942,0.192
8943,0.192
8944,0.192
8945,0.192
8946,0.200
8947,0.192
8948,0.192
8949,0.185
8950,0.192
8951,0.192
8952,0.200
8953,0.200
8954,0.200
8955,0.223
8956,0.223
8957,0.215
8958,0.215
8959,0.231
8960,0.231
8961,0.231
8962,0.238
8963,0.231
8964,0.231
8965,0.238
8966,0.238
8967,0.238
8968,0.238
8969,0.231
8970,0.231
8971,0.223
8972,0.231
8973,0.231
8974,0.223
8975,0.223
8976,0.231
8977,0.223
8978,0.238
8979,0.246
8980,0.246
8981,0.254
8982,0.262
8983,0.246
8984,0.238
8985,0.246
8986,0.246
8987,0.231
8988,0.231
8989,0.238
8990,0.246
8991,0.254
8992,0.262
8993,0.254
8994,0.254
8995,0.254
8996,0.254
8997,0.262
8998,0.269
8999,0.277
9000,0.285
9001,0.285
9002,0.277
9003,0.269
9004,0.269
9005,0.277
9006,0.292
9007,0.292
9008,0.292
9009,0.292
9010,0.300
9011,0.292
9012,0.285
9013,0.300
9014,0.315
9015,0.308
9016,0.300
9017,0.308
9018,0.323
9019,0.323
9020,0.323
9021,0.331
9022,0.346
9023,0.354
9024,0.362
9025,0.369
9026,0.354
9027,0.362
9028,0.369
9029,0.354
9030,0.338
9031,0.354
9032,0.354
9033,0.362
9034,0.346
9035,0.354
9036,0.362
9037,0.369
9038,0.369
9039,0.385
9040,0.377
9041,0.392
9042,0.415
9043,0.446
9044,0.446
9045,0.446
9046,0.477
9047,0.477
9048,0.485
9049,0.492
9050,0.508
9051,0.523
9052,0.531
9053,0.546
9054,0.554
9055,0.562
9056,0.592
9057,0.608
9058,0.615
9059,0.638
9060,0.654
9061,0.654
9062,0.669
9063,0.677
9064,0.685
9065,0.692
9066,0.715
9067,0.708
9068,0.715
9069,0.723
9070,0.715
9071,0.715
9072,0.731
9073,0.715
9074,0.731
9075,0.738
9076,0.738
9077,0.731
9078,0.731
9079,0.731
9080,0.731
9081,0.738
9082,0.738
9083,0.746
9084,0.738
9085,0.731
9086,0.715
9087,0.723
9088,0.723
9089,0.715
9090,0.708
9091,0.708
9092,0.692
9093,0.685
9094,0.692
9095,0.685
9096,0.669
9097,0.669
9098,0.662
9099,0.638
9100,0.623
9101,0.615
9102,0.592
9103,0.577
9104,0.585
9105,0.569
9106,0.577
9107,0.585
9108,0.569
9109,0.554
9110,0.562
9111,0.569
9112,0.554
9113,0.554
9114,0.554
9115,0.531
9116,0.523
9117,0.531
9118,0.515
9119,0.500
9120,0.500
9121,0.492
9122,0.462
9123,0.454
9124,0.454
9125,0.438
9126,0.423
9127,0.423
9128,0.415
9129,0.408
9130,0.392
9131,0.392
9132,0.377
9133,0.377
9134,0.385
9135,0.362
9136,0.346
9137,0.369
9138,0.354
9139,0.323
9140,0.338
9141,0.338
9142,0.315
9143,0.315
9144,0.323
9145,0.315
9146,0.323
9147,0.323
9148,0.300
9149,0.300
9150,0.300
9151,0.285
9152,0.285
9153,0.292
9154,0.292
9155,0.292
9156,0.292
9157,0.285
9158,0.285
9159,0.292
9160,0.292
9161,0.277
9162,0.277
9163,0.254
9164,0.254
9165,0.262
9166,0.254
9167,0.254
9168,0.262
9169,0.254
9170,0.254
9171,0.262
9172,0.254
9173,0.254
9174,0.262
9175,0.246
9176,0.238
9177,0.254
9178,0.246
9179,0.231
9180,0.246
9181,0.254
9182,0.231
9183,0.231
9184,0.238
9185,0.238
9186,0.238
9187,0.246
9188,0.231
9189,0.238
9190,0.254
9191,0.254
9192,0.246
9193,0.262
9194,0.262
9195,0.254
9196,0.254
9197,0.246
9198,0.246
9199,0.238
9200,0.238
9201,0.231
9202,0.238
9203,0.238
9204,0.238
9205,0.246
9206,0.238
9207,0.231
9208,0.223
9209,0.231
9210,0.238
9211,0.223
9212,0.215
9213,0.223
9214,0.223
9215,0.223
9216,0.238
9217,0.231
9218,0.231
9219,0.238
9220,0.231
9221,0.223
9222,0.231
9223,0.231
9224,0.215
9225,0.215
9226,0.223
9227,0.208
9228,0.208
9229,0.215
9230,0.208
9231,0.200
9232,0.200
9233,0.200
9234,0.200
9235,0.208
9236,0.208
9237,0.208
9238,0.215
9239,0.223
9240,0.223
9241,0.231
9242,0.215
9243,0.215
9244,0.215
9245,0.215
9246,0.200
9247,0.185
9248,0.192
9249,0.200
9250,0.185
9251,0.200
9252,0.200
9253,0.192
9254,0.192
9255,0.208
9256,0.200
9257,0.192
9258,0.200
9259,0.192
9260,0.185
9261,0.192
9262,0.177
9263,0.169
9264,0.185
9265,0.169
9266,0.162
9267,0.169
9268,0.169
9269,0.154
9270,0.162
9271,0.169
9272,0.185
9273,0.185
9274,0.192
9275,0.185
9276,0.185
9277,0.185
9278,0.185
9279,0.192
9280,0.185
9281,0.192
9282,0.192
9283,0.200
9284,0.192
9285,0.200
9286,0.200
9287,0.192
9288,0.192
9289,0.192
9290,0.185
9291,0.192
9292,0.192
9293,0.192
9294,0.185
9295,0.200
9296,0.192
9297,0.185
9298,0.185
9299,0.185
9300,0.185
9301,0.185
9302,0.192
9303,0.185
9304,0.185
9305,0.200
9306,0.200
9307,0.177
9308,0.185
9309,0.185
9310,0.185
9311,0.177
9312,0.177
9313,0.169
9314,0.185
9315,0.192
9316,0.185
9317,0.192
9318,0.192
9319,0.185
9320,0.185
9321,0.192
9322,0.192
9323,0.185
9324,0.200
9325,0.200
9326,0.200
9327,0.200
9328,0.200
9329,0.208
9330,0.208
9331,0.215
9332,0.215
9333,0.215
9334,0.223
9335,0.215
9336,0.208
9337,0.208
9338,0.215
9339,0.215
9340,0.192
9341,0.185
9342,0.192
9343,0.185
9344,0.185
9345,0.185
9346,0.192
9347,0.192
9348,0.185
9349,0.185
9350,0.192
9351,0.185
9352,0.192
9353,0.185
9354,0.185
9355,0.185
9356,0.185
9357,0.185
9358,0.169
9359,0.154
9360,0.162
9361,0.154
9362,0.154
9363,0.146
9364,0.146
9365,0.154
9366,0.169
9367,0.169
9368,0.177
9369,0.177
9370,0.185
9371,0.185
9372,0.192
9373,0.192
9374,0.177
9375,0.177
9376,0.177
9377,0.177
9378,0.177
9379,0.177
9380,0.177
9381,0.169
9382,0.177
9383,0.169
9384,0.177
9385,0.185
9386,0.185
9387,0.185
9388,0.192
9389,0.192
9390,0.177
9391,0.169
9392,0.169
9393,0.169
9394,0.169
9395,0.162
9396,0.162
9397,0.154
9398,0.146
9399,0.162
9400,0.162
9401,0.162
9402,0.169
9403,0.177
9404,0.177
9405,0.185
9406,0.177
9407,0.185
9408,0.185
9409,0.185
9410,0.192
9411,0.200
9412,0.200
9413,0.200
9414,0.192
9415,0.200
9416,0.185
9417,0.192
9418,0.185
9419,0.162
9420,0.162
9421,0.177
9422,0.177
9423,0.177
9424,0.185
9425,0.185
9426,0.177
9427,0.185
9428,0.208
9429,0.200
9430,0.192
9431,0.192
9432,0.192
9433,0.192
9434,0.192
9435,0.208
9436,0.200
9437,0.185
9438,0.185
9439,0.169
9440,0.177
9441,0.185
9442,0.177
9443,0.169
9444,0.177
9445,0.185
9446,0.177
9447,0.192
9448,0.192
9449,0.177
9450,0.185
9451,0.185
9452,0.177
9453,0.185
9454,0.185
9455,0.169
9456,0.177
9457,0.185
9458,0.185
9459,0.185
9460,0.185
9461,0.185
9462,0.169
9463,0.177
9464,0.177
9465,0.169
9466,0.162
9467,0.169
9468,0.177
9469,0.177
9470,0.185
9471,0.177
9472,0.169
9473,0.185
9474,0.177
9475,0.177
9476,0.185
9477,0.177
9478,0.177
9479,0.177
9480,0.177
9481,0.162
9482,0.169
9483,0.169
9484,0.162
9485,0.154
9486,0.169
9487,0.169
9488,0.169
9489,0.177
9490,0.192
9491,0.192
9492,0.208
9493,0.208
9494,0.192
9495,0.200
9496,0.200
9497,0.192
9498,0.200
9499,0.200
9500,0.200
9501,0.200
9502,0.200
9503,0.200
9504,0.192
9505,0.208
9506,0.208
9507,0.200
9508,0.200
9509,0.200
9510,0.200
9511,0.200
9512,0.208
9513,0.200
9514,0.200
9515,0.200
9516,0.208
9517,0.200
9518,0.200
9519,0.208
9520,0.200
9521,0.200
9522,0.208
9523,0.192
9524,0.200
9525,0.208
9526,0.200
9527,0.192
9528,0.200
9529,0.208
9530,0.192
9531,0.200
9532,0.208
9533,0.192
9534,0.192
9535,0.208
9536,0.200
9537,0.192
9538,0.192
9539,0.192
9540,0.192
9541,0.200
9542,0.200
9543,0.208
9544,0.200
9545,0.185
9546,0.177
9547,0.177
9548,0.177
9549,0.169
9550,0.154
9551,0.162
9552,0.177
9553,0.177
9554,0.169
9555,0.185
9556,0.185
9557,0.192
9558,0.185
9559,0.177
9560,0.185
9561,0.185
9562,0.185
9563,0.177
9564,0.200
9565,0.192
9566,0.177
9567,0.185
9568,0.185
9569,0.185
9570,0.177
9571,0.169
9572,0.169
9573,0.177
9574,0.169
9575,0.169
9576,0.185
9577,0.177
9578,0.162
9579,0.162
9580,0.169
9581,0.177
9582,0.177
9583,0.162
9584,0.162
9585,0.177
9586,0.177
9587,0.169
9588,0.169
9589,0.169
9590,0.162
9591,0.169
9592,0.177
9593,0.169
9594,0.162
9595,0.162
9596,0.177
9597,0.177
9598,0.177
9599,0.185
9600,0.185
9601,0.185
9602,0.192
9603,0.185
9604,0.185
9605,0.192
9606,0.192
9607,0.192
9608,0.192
9609,0.200
9610,0.200
9611,0.208
9612,0.223
9613,0.223
9614,0.223
9615,0.223
9616,0.215
9617,0.215
9618,0.223
9619,0.208
9620,0.208
9621,0.215
9622,0.215
9623,0.208
9624,0.208
9625,0.223
9626,0.231
9627,0.223
9628,0.231
9629,0.231
9630,0.231
9631,0.238
9632,0.231
9633,0.223
9634,0.208
9635,0.223
9636,0.215
9637,0.208
9638,0.208
9639,0.223
9640,0.208
9641,0.208
9642,0.208
9643,0.200
9644,0.208
9645,0.200
9646,0.200
9647,0.192
9648,0.185
9649,0.185
9650,0.185
9651,0.177
9652,0.185
9653,0.192
9654,0.192
9655,0.185
9656,0.185
9657,0.177
9658,0.169
9659,0.177
9660,0.177
9661,0.162
9662,0.169
9663,0.169
9664,0.169
9665,0.169
9666,0.169
9667,0.177
9668,0.169
9669,0.169
9670,0.169
9671,0.177
9672,0.162
9673,0.162
9674,0.162
9675,0.162
9676,0.169
9677,0.162
9678,0.162
9679,0.162
9680,0.162
9681,0.162
9682,0.154
9683,0.154
9684,0.146
9685,0.138
9686,0.146
9687,0.154
9688,0.154
9689,0.146
9690,0.146
9691,0.138
9692,0.138
9693,0.138
9694,0.138
9695,0.131
9696,0.146
9697,0.146
9698,0.138
9699,0.146
9700,0.154
9701,0.154
9702,0.146
9703,0.146
9704,0.154
9705,0.154
9706,0.146
9707,0.154
9708,0.138
9709,0.154
9710,0.154
9711,0.154
9712,0.162
9713,0.154
9714,0.154
9715,0.154
9716,0.162
9717,0.162
9718,0.154
9719,0.162
9720,0.154
9721,0.154
9722,0.162
9723,0.162
9724,0.169
9725,0.169
9726,0.177
9727,0.185
9728,0.192
9729,0.192
9730,0.200
9731,0.200
9732,0.208
9733,0.215
9734,0.223
9735,0.223
9736,0.231
9737,0.238
9738,0.238
9739,0.238
9740,0.246
9741,0.238
9742,0.238
9743,0.246
9744,0.254
9745,0.277
9746,0.308
9747,0.338
9748,0.369
9749,0.408
9750,0.423
9751,0.431
9752,0.423
9753,0.415
9754,0.377
9755,0.369
9756,0.362
9757,0.338
9758,0.323
9759,0.300
9760,0.269
9761,0.246
9762,0.215
9763,0.192
9764,0.169
9765,0.146
9766,0.131
9767,0.115
9768,0.115
9769,0.108
9770,0.092
9771,0.085
9772,0.062
9773,0.054
9774,0.077
9775,0.085
9776,0.100
9777,0.100
9778,0.100
9779,0.115
9780,0.115
9781,0.115
9782,0.115
9783,0.115
9784,0.115
9785,0.115
9786,0.100
9787,0.100
9788,0.100
9789,0.115
9790,0.115
9791,0.123
9792,0.138
9793,0.146
9794,0.146
9795,0.146
9796,0.138
9797,0.146
9798,0.138
9799,0.138
9800,0.154
9801,0.154
9802,0.146
9803,0.154
9804,0.154
9805,0.154
9806,0.154
9807,0.154
9808,0.162
9809,0.162
9810,0.162
9811,0.162
9812,0.169
9813,0.162
9814,0.154
9815,0.169
9816,0.169
9817,0.169
9818,0.169
9819,0.169
9820,0.177
9821,0.185
9822,0.177
9823,0.185
9824,0.177
9825,0.177
9826,0.177
9827,0.177
9828,0.162
9829,0.154
9830,0.169
9831,0.185
9832,0.192
9833,0.185
9834,0.185
9835,0.192
9836,0.192
9837,0.192
9838,0.192
9839,0.192
9840,0.185
9841,0.177
9842,0.177
9843,0.162
9844,0.162
9845,0.169
9846,0.169
9847,0.162
9848,0.177
9849,0.177
9850,0.169
9851,0.177
9852,0.169
9853,0.177
9854,0.185
9855,0.169
9856,0.177
9857,0.177
9858,0.185
9859,0.185
9860,0.185
9861,0.177
9862,0.185
9863,0.185
9864,0.169
9865,0.177
9866,0.185
9867,0.177
9868,0.177
9869,0.162
9870,0.154
9871,0.162
9872,0.169
9873,0.162
9874,0.146
9875,0.162
9876,0.154
9877,0.162
9878,0.162
9879,0.169
9880,0.169
9881,0.169
9882,0.177
9883,0.169
9884,0.154
9885,0.169
9886,0.177
9887,0.177
9888,0.169
9889,0.177
9890,0.169
9891,0.162
9892,0.154
9893,0.162
9894,0.162
9895,0.169
9896,0.169
9897,0.177
9898,0.185
9899,0.185
9900,0.185
9901,0.185
9902,0.185
9903,0.192
9904,0.200
9905,0.185
9906,0.192
9907,0.192
9908,0.192
9909,0.192
9910,0.192
9911,0.185
9912,0.192
9913,0.185
9914,0.192
9915,0.192
9916,0.185
9917,0.185
9918,0.185
9919,0.192
9920,0.200
9921,0.192
9922,0.200
9923,0.200
9924,0.192
9925,0.185
9926,0.185
9927,0.192
9928,0.200
9929,0.192
9930,0.200
9931,0.200
9932,0.200
9933,0.208
9934,0.208
9935,0.200
9936,0.208
9937,0.208
9938,0.223
9939,0.215
9940,0.223
9941,0.215
9942,0.215
9943,0.223
9944,0.223
9945,0.231
9946,0.231
9947,0.231
9948,0.231
9949,0.246
9950,0.238
9951,0.238
9952,0.254
9953,0.254
9954,0.246
9955,0.246
9956,0.262
9957,0.254
9958,0.262
9959,0.262
9960,0.262
9961,0.269
9962,0.262
9963,0.269
9964,0.277
9965,0.277
9966,0.277
9967,0.285
9968,0.285
9969,0.285
9970,0.285
9971,0.292
9972,0.292
9973,0.285
9974,0.300
9975,0.300
9976,0.300
9977,0.292
9978,0.292
9979,0.300
9980,0.292
9981,0.285
9982,0.292
9983,0.285
9984,0.285
9985,0.277
9986,0.269
9987,0.277
9988,0.277
9989,0.262
9990,0.277
9991,0.277
9992,0.277
9993,0.277
9994,0.277
9995,0.277
9996,0.262
9997,0.269
9998,0.277
9999,0.269
10000,0.262
10001,0.269
10002,0.262
10003,0.246
10004,0.262
10005,0.262
10006,0.254
10007,0.254
10008,0.262
10009,0.254
10010,0.246
10011,0.246
10012,0.238
10013,0.238
10014,0.231
10015,0.223
10016,0.215
10017,0.223
10018,0.215
10019,0.208
10020,0.223
10021,0.208
10022,0.200
10023,0.200
10024,0.200
10025,0.192
10026,0.200
10027,0.192
10028,0.169
10029,0.169
10030,0.177
10031,0.177
10032,0.177
10033,0.177
10034,0.177
10035,0.177
10036,0.185
10037,0.177
10038,0.177
10039,0.185
10040,0.169
10041,0.162
10042,0.169
10043,0.177
10044,0.185
10045,0.185
10046,0.177
10047,0.169
10048,0.185
10049,0.185
10050,0.177
10051,0.185
10052,0.185
10053,0.177
10054,0.177
10055,0.185
10056,0.185
10057,0.185
10058,0.185
10059,0.185
10060,0.185
10061,0.177
10062,0.177
10063,0.169
10064,0.169
10065,0.169
10066,0.177
10067,0.177
10068,0.177
10069,0.185
10070,0.177
10071,0.185
10072,0.200
10073,0.200
10074,0.192
10075,0.200
10076,0.200
10077,0.192
10078,0.200
10079,0.200
10080,0.192
10081,0.192
10082,0.192
10083,0.192
10084,0.192
10085,0.200
10086,0.192
10087,0.185
10088,0.200
10089,0.192
10090,0.200
10091,0.200
10092,0.185
10093,0.192
10094,0.192
10095,0.185
10096,0.192
10097,0.192
10098,0.192
10099,0.185
10100,0.192
10101,0.192
10102,0.185
10103,0.192
10104,0.192
10105,0.185
10106,0.185
10107,0.185
10108,0.192
10109,0.185
10110,0.169
10111,0.177
10112,0.185
10113,0.177
10114,0.185
10115,0.200
10116,0.177
10117,0.177
10118,0.192
10119,0.192
10120,0.177
10121,0.177
10122,0.192
10123,0.200
10124,0.215
10125,0.208
10126,0.208
10127,0.215
10128,0.215
10129,0.231
10130,0.238
10131,0.231
10132,0.246
10133,0.269
10134,0.292
10135,0.308
10136,0.323
10137,0.346
10138,0.362
10139,0.392
10140,0.408
10141,0.415
10142,0.431
10143,0.438
10144,0.454
10145,0.477
10146,0.492
10147,0.500
10148,0.523
10149,0.538
10150,0.554
10151,0.562
10152,0.569
10153,0.592
10154,0.608
10155,0.631
10156,0.654
10157,0.685
10158,0.708
10159,0.738
10160,0.754
10161,0.777
10162,0.808
10163,0.854
10164,0.885
10165,0.931
10166,0.977
10167,1.015
10168,1.031
10169,1.015
10170,0.992
10171,0.977
10172,0.962
10173,0.938
10174,0.931
10175,0.892
10176,0.862
10177,0.808
10178,0.762
10179,0.715
10180,0.677
10181,0.623
10182,0.577
10183,0.538
10184,0.485
10185,0.423
10186,0.392
10187,0.346
10188,0.300
10189,0.269
10190,0.246
10191,0.231
10192,0.231
10193,0.223
10194,0.200
10195,0.208
10196,0.200
10197,0.192
10198,0.192
10199,0.192
10200,0.185
10201,0.169
10202,0.162
10203,0.162
10204,0.154
10205,0.154
10206,0.154
10207,0.154
10208,0.146
10209,0.146
10210,0.146
10211,0.138
10212,0.146
10213,0.154
10214,0.138
10215,0.138
10216,0.146
10217,0.138
10218,0.131
10219,0.146
10220,0.138
10221,0.123
10222,0.131
10223,0.138
10224,0.138
10225,0.131
10226,0.138
10227,0.123
10228,0.123
10229,0.115
10230,0.123
10231,0.123
10232,0.123
10233,0.108
10234,0.115
10235,0.108
10236,0.115
10237,0.115
10238,0.100
10239,0.092
10240,0.085
10241,0.085
10242,0.100
10243,0.100
10244,0.100
10245,0.100
10246,0.092
10247,0.077
10248,0.077
10249,0.077
10250,0.077
10251,0.077
10252,0.085
10253,0.077
10254,0.069
10255,0.062
10256,0.062
10257,0.069
10258,0.069
10259,0.069
10260,0.062
10261,0.062
10262,0.077
10263,0.077
10264,0.077
10265,0.077
10266,0.062
10267,0.069
10268,0.077
10269,0.069
10270,0.077
10271,0.085
10272,0.069
10273,0.062
10274,0.062
10275,0.069
10276,0.069
10277,0.077
10278,0.077
10279,0.062
10280,0.054
10281,0.054
10282,0.062
10283,0.062
10284,0.062
10285,0.062
10286,0.062
10287,0.062
10288,0.062
10289,0.046
10290,0.054
10291,0.062
10292,0.054
10293,0.062
10294,0.054
10295,0.046
10296,0.054
10297,0.062
10298,0.054
10299,0.046
10300,0.038
10301,0.038
10302,0.046
10303,0.038
10304,0.023
10305,0.023
10306,0.031
10307,0.038
10308,0.038
10309,0.031
10310,0.038
10311,0.038
10312,0.031
10313,0.023
10314,0.023
10315,0.038
10316,0.046
10317,0.031
10318,0.023
10319,0.038
10320,0.038
10321,0.038
10322,0.038
10323,0.031
10324,0.031
10325,0.046
10326,0.038
10327,0.031
10328,0.023
10329,0.023
10330,0.031
10331,0.031
10332,0.023
10333,0.023
10334,0.023
10335,0.008
10336,-0.008
10337,0.008
10338,-0.008
10339,-0.046
10340,-0.038
10341,-0.015
10342,-0.031
10343,-0.038
10344,-0.031
10345,-0.038
10346,-0.046
10347,-0.046
10348,-0.046
10349,-0.046
10350,-0.038
10351,-0.031
10352,-0.046
10353,-0.038
10354,-0.038
10355,-0.046
10356,-0.031
10357,-0.031
10358,-0.031
10359,-0.015
10360,-0.015
10361,-0.023
10362,-0.008
10363,-0.015
10364,-0.008
10365,-0.008
10366,-0.015
10367,-0.023
10368,-0.008
10369,-0.015
10370,-0.008
10371,-0.008
10372,-0.008
10373,0.000
10374,0.008
10375,0.008
10376,0.008
10377,0.023
10378,0.023
10379,0.015
10380,0.015
10381,0.008
10382,0.015
10383,0.031
10384,0.023
10385,0.031
10386,0.031
10387,0.038
10388,0.046
10389,0.038
10390,0.031
10391,0.038
10392,0.054
10393,0.062
10394,0.054
10395,0.054
10396,0.062
10397,0.069
10398,0.069
10399,0.062
10400,0.054
10401,0.054
10402,0.069
10403,0.069
10404,0.062
10405,0.062
10406,0.069
10407,0.077
10408,0.085
10409,0.077
10410,0.069
10411,0.077
10412,0.092
10413,0.092
10414,0.092
10415,0.100
10416,0.092
10417,0.100
10418,0.108
10419,0.108
10420,0.100
10421,0.123
10422,0.123
10423,0.108
10424,0.131
10425,0.131
10426,0.123
10427,0.131
10428,0.138
10429,0.146
10430,0.146
10431,0.146
10432,0.131
10433,0.123
10434,0.138
10435,0.146
10436,0.146
10437,0.138
10438,0.146
10439,0.154
10440,0.154
10441,0.154
10442,0.162
10443,0.154
10444,0.154
10445,0.154
10446,0.154
10447,0.162
10448,0.177
10449,0.169
10450,0.154
10451,0.154
10452,0.169
10453,0.169
10454,0.169
10455,0.169
10456,0.177
10457,0.177
10458,0.185
10459,0.185
10460,0.192
10461,0.200
10462,0.192
10463,0.192
10464,0.185
10465,0.185
10466,0.177
10467,0.192
10468,0.200
10469,0.192
10470,0.185
10471,0.200
10472,0.200
10473,0.192
10474,0.192
10475,0.192
10476,0.200
10477,0.200
10478,0.208
10479,0.200
10480,0.192
10481,0.208
10482,0.208
10483,0.208
10484,0.208
10485,0.208
10486,0.208
10487,0.208
10488,0.200
10489,0.192
10490,0.192
10491,0.192
10492,0.192
10493,0.177
10494,0.185
10495,0.208
10496,0.208
10497,0.215
10498,0.208
10499,0.215
10500,0.215
10501,0.215
10502,0.215
10503,0.223
10504,0.215
10505,0.215
10506,0.215
10507,0.223
10508,0.223
10509,0.223
10510,0.223
10511,0.223
10512,0.223
10513,0.223
10514,0.231
10515,0.231
10516,0.223
10517,0.223
10518,0.223
10519,0.215
10520,0.223
10521,0.215
10522,0.215
10523,0.208
10524,0.215
10525,0.223
10526,0.223
10527,0.223
10528,0.231
10529,0.223
10530,0.208
10531,0.215
10532,0.215
10533,0.208
10534,0.208
10535,0.200
10536,0.208
10537,0.215
10538,0.215
10539,0.208
10540,0.200
10541,0.208
10542,0.215
10543,0.223
10544,0.223
10545,0.223
10546,0.208
10547,0.215
10548,0.215
10549,0.223
10550,0.223
10551,0.223
10552,0.215
10553,0.223
10554,0.223
10555,0.223
10556,0.215
10557,0.215
10558,0.215
10559,0.223
10560,0.231
10561,0.223
10562,0.223
10563,0.223
10564,0.223
10565,0.215
10566,0.215
10567,0.215
10568,0.215
10569,0.215
10570,0.215
10571,0.215
10572,0.208
10573,0.208
10574,0.215
10575,0.208
10576,0.208
10577,0.208
10578,0.208
10579,0.200
10580,0.200
10581,0.208
10582,0.215
10583,0.223
10584,0.215
10585,0.215
10586,0.215
10587,0.215
10588,0.215
10589,0.223
10590,0.215
10591,0.208
10592,0.215
10593,0.215
10594,0.215
10595,0.208
10596,0.208
10597,0.200
10598,0.208
10599,0.208
10600,0.200
10601,0.208
10602,0.208
10603,0.208
10604,0.208
10605,0.200
10606,0.208
10607,0.208
10608,0.200
10609,0.208
10610,0.208
10611,0.208
10612,0.208
10613,0.208
10614,0.208
10615,0.192
10616,0.208
10617,0.200
10618,0.208
10619,0.208
10620,0.215
10621,0.208
10622,0.208
10623,0.215
10624,0.215
10625,0.208
10626,0.208
10627,0.215
10628,0.215
10629,0.208
10630,0.208
10631,0.208
10632,0.208
10633,0.208
10634,0.223
10635,0.215
10636,0.208
10637,0.208
10638,0.215
10639,0.208
10640,0.200
10641,0.200
10642,0.215
10643,0.208
10644,0.200
10645,0.192
10646,0.185
10647,0.185
10648,0.177
10649,0.185
10650,0.169
10651,0.162
10652,0.177
10653,0.185
10654,0.169
10655,0.169
10656,0.185
10657,0.185
10658,0.185
10659,0.200
10660,0.185
10661,0.185
10662,0.177
10663,0.185
10664,0.185
10665,0.177
10666,0.177
10667,0.177
10668,0.162
10669,0.162
10670,0.162
10671,0.162
10672,0.162
10673,0.154
10674,0.169
10675,0.177
10676,0.169
10677,0.177
10678,0.177
10679,0.185
10680,0.169
10681,0.177
10682,0.185
10683,0.177
10684,0.185
10685,0.185
10686,0.169
10687,0.169
10688,0.169
10689,0.169
10690,0.169
10691,0.169
10692,0.162
10693,0.154
10694,0.154
10695,0.162
10696,0.154
10697,0.154
10698,0.154
10699,0.162
10700,0.162
10701,0.162
10702,0.154
10703,0.162
10704,0.162
10705,0.162
10706,0.162
10707,0.162
10708,0.154
10709,0.162
10710,0.162
10711,0.154
10712,0.154
10713,0.162
10714,0.154
10715,0.146
10716,0.138
10717,0.154
10718,0.146
10719,0.154
10720,0.162
10721,0.169
10722,0.169
10723,0.169
10724,0.162
10725,0.162
10726,0.169
10727,0.162
10728,0.162
10729,0.162
10730,0.162
10731,0.146
10732,0.162
10733,0.154
10734,0.146
10735,0.162
10736,0.162
10737,0.154
10738,0.154
10739,0.169
10740,0.154
10741,0.162
10742,0.177
10743,0.177
10744,0.177
10745,0.185
10746,0.177
10747,0.162
10748,0.162
10749,0.169
10750,0.162
10751,0.169
10752,0.169
10753,0.162
10754,0.154
10755,0.162
10756,0.162
10757,0.162
10758,0.162
10759,0.162
10760,0.162
10761,0.162
10762,0.162
10763,0.162
10764,0.177
10765,0.169
10766,0.169
10767,0.177
10768,0.177
10769,0.169
10770,0.169
10771,0.162
10772,0.169
10773,0.169
10774,0.162
10775,0.154
10776,0.162
10777,0.169
10778,0.162
10779,0.162
10780,0.177
10781,0.162
10782,0.154
10783,0.162
10784,0.162
10785,0.162
10786,0.169
10787,0.154
10788,0.169
10789,0.169
10790,0.154
10791,0.154
10792,0.162
10793,0.154
10794,0.154
10795,0.162
10796,0.162
10797,0.162
10798,0.154
10799,0.146
10800,0.154
10801,0.169
10802,0.162
10803,0.162
10804,0.162
10805,0.162
10806,0.162
10807,0.169
10808,0.162
10809,0.162
10810,0.162
10811,0.162
10812,0.162
10813,0.169
10814,0.169
10815,0.162
10816,0.162
10817,0.169
10818,0.169
10819,0.169
10820,0.177
10821,0.162
10822,0.162
10823,0.154
10824,0.162
10825,0.169
10826,0.162
10827,0.146
10828,0.154
10829,0.154
10830,0.162
10831,0.169
10832,0.169
10833,0.177
10834,0.169
10835,0.177
10836,0.177
10837,0.185
10838,0.185
10839,0.177
10840,0.177
10841,0.169
10842,0.169
10843,0.169
10844,0.162
10845,0.169
10846,0.169
10847,0.162
10848,0.162
10849,0.162
10850,0.169
10851,0.177
10852,0.169
10853,0.154
10854,0.169
10855,0.177
10856,0.177
10857,0.177
10858,0.177
10859,0.169
10860,0.177
10861,0.185
10862,0.169
10863,0.162
10864,0.169
10865,0.162
10866,0.169
10867,0.169
10868,0.169
10869,0.162
10870,0.162
10871,0.162
10872,0.169
10873,0.169
10874,0.169
10875,0.169
10876,0.162
10877,0.177
10878,0.169
10879,0.162
10880,0.162
10881,0.162
10882,0.162
10883,0.154
10884,0.154
10885,0.162
10886,0.169
10887,0.154
10888,0.146
10889,0.162
10890,0.154
10891,0.154
10892,0.162
10893,0.162
10894,0.154
